,Regression
0,68.35766698258
1,68.36545554271025
2,68.37324410284049
3,68.38103266297074
4,68.38882122310098
5,68.39660978323121
6,68.40439834336145
7,68.41218690349169
8,68.41997546362194
9,68.42776402375219
10,68.43555258388241
11,68.44334114401265
12,68.4511297041429
13,68.45891826427314
14,68.46670682440337
15,68.47449538453361
16,68.48228394466385
17,68.49007250479409
18,68.49786106492435
19,68.50564962505457
20,68.51343818518481
21,68.52122674531505
22,68.52901530544528
23,68.53680386557554
24,68.54459242570577
25,68.55238098583601
26,68.56016954596625
27,68.56795810609648
28,68.57574666622673
29,68.58353522635696
30,68.59132378648721
31,68.59911234661745
32,68.60690090674767
33,68.61468946687793
34,68.62247802700817
35,68.63026658713841
36,68.63805514726864
37,68.64584370739888
38,68.65363226752913
39,68.66142082765937
40,68.6692093877896
41,68.67699794791984
42,68.68478650805008
43,68.69257506818033
44,68.70036362831057
45,68.7081521884408
46,68.71594074857104
47,68.72372930870128
48,68.73151786883153
49,68.73930642896177
50,68.74709498909199
51,68.75488354922224
52,68.76267210935251
53,68.77046066948273
54,68.77824922961297
55,68.7860377897432
56,68.79382634987344
57,68.80161491000369
58,68.80940347013393
59,68.81719203026417
60,68.8249805903944
61,68.83276915052464
62,68.84055771065489
63,68.84834627078513
64,68.85613483091537
65,68.8639233910456
66,68.87171195117584
67,68.87950051130609
68,68.88728907143633
69,68.89507763156656
70,68.9028661916968
71,68.91065475182704
72,68.91844331195729
73,68.92623187208754
74,68.93402043221776
75,68.941808992348
76,68.94959755247825
77,68.95738611260849
78,68.96517467273873
79,68.97296323286896
80,68.9807517929992
81,68.98854035312944
82,68.99632891325969
83,69.00411747338993
84,69.01190603352015
85,69.0196945936504
86,69.02748315378064
87,69.03527171391089
88,69.04306027404112
89,69.05084883417136
90,69.0586373943016
91,69.06642595443184
92,69.07421451456209
93,69.08200307469231
94,69.08979163482256
95,69.0975801949528
96,69.10536875508302
97,69.11315731521329
98,69.12094587534352
99,69.12873443547376
100,69.136522995604
101,69.14431155573422
102,69.1521001158645
103,69.15988867599472
104,69.16767723612496
105,69.17546579625521
106,69.18325435638543
107,69.19104291651568
108,69.19883147664592
109,69.20662003677616
110,69.2144085969064
111,69.22219715703663
112,69.22998571716688
113,69.23777427729712
114,69.24556283742736
115,69.25335139755761
116,69.26113995768783
117,69.26892851781808
118,69.27671707794832
119,69.28450563807857
120,69.2922941982088
121,69.30008275833903
122,69.30787131846928
123,69.31565987859952
124,69.32344843872976
125,69.33123699885999
126,69.33902555899023
127,69.34681411912048
128,69.35460267925072
129,69.36239123938095
130,69.37017979951119
131,69.37796835964143
132,69.38575691977168
133,69.39354547990193
134,69.40133404003215
135,69.40912260016239
136,69.41691116029263
137,69.42469972042288
138,69.43248828055312
139,69.44027684068335
140,69.44806540081359
141,69.45585396094384
142,69.46364252107408
143,69.47143108120432
144,69.47921964133454
145,69.48700820146479
146,69.49479676159504
147,69.50258532172528
148,69.5103738818555
149,69.51816244198575
150,69.52595100211599
151,69.53373956224624
152,69.54152812237648
153,69.54931668250671
154,69.55710524263695
155,69.56489380276719
156,69.57268236289744
157,69.58047092302768
158,69.5882594831579
159,69.59604804328815
160,69.60383660341839
161,69.61162516354864
162,69.61941372367886
163,69.62720228380911
164,69.63499084393935
165,69.6427794040696
166,69.65056796419985
167,69.65835652433007
168,69.66614508446031
169,69.67393364459055
170,69.68172220472078
171,69.68951076485104
172,69.69729932498127
173,69.70508788511151
174,69.71287644524175
175,69.72066500537198
176,69.72845356550225
177,69.73624212563247
178,69.74403068576271
179,69.75181924589296
180,69.75960780602318
181,69.76739636615343
182,69.77518492628367
183,69.78297348641391
184,69.79076204654415
185,69.79855060667438
186,69.80633916680463
187,69.81412772693487
188,69.82191628706511
189,69.82970484719534
190,69.83749340732558
191,69.84528196745583
192,69.85307052758607
193,69.86085908771629
194,69.86864764784654
195,69.87643620797678
196,69.88422476810703
197,69.89201332823728
198,69.8998018883675
199,69.90759044849774
200,69.91537900862798
201,69.92316756875823
202,69.93095612888847
203,69.9387446890187
204,69.94653324914894
205,69.95432180927918
206,69.96211036940943
207,69.96989892953967
208,69.97768748966989
209,69.98547604980014
210,69.99326460993038
211,70.00105317006063
212,70.00884173019087
213,70.0166302903211
214,70.02441885045134
215,70.03220741058158
216,70.03999597071183
217,70.04778453084207
218,70.0555730909723
219,70.06336165110254
220,70.07115021123278
221,70.07893877136303
222,70.08672733149325
223,70.0945158916235
224,70.10230445175374
225,70.11009301188398
226,70.11788157201423
227,70.12567013214446
228,70.1334586922747
229,70.14124725240494
230,70.14903581253517
231,70.15682437266544
232,70.16461293279566
233,70.1724014929259
234,70.18019005305615
235,70.18797861318637
236,70.19576717331663
237,70.20355573344686
238,70.2113442935771
239,70.21913285370734
240,70.22692141383757
241,70.23470997396782
242,70.24249853409806
243,70.2502870942283
244,70.25807565435854
245,70.26586421448879
246,70.27365277461902
247,70.28144133474926
248,70.2892298948795
249,70.29701845500973
250,70.30480701513999
251,70.31259557527021
252,70.32038413540046
253,70.3281726955307
254,70.33596125566093
255,70.34374981579118
256,70.35153837592142
257,70.35932693605166
258,70.3671154961819
259,70.37490405631212
260,70.38269261644237
261,70.39048117657264
262,70.39826973670286
263,70.4060582968331
264,70.41384685696333
265,70.42163541709358
266,70.42942397722382
267,70.43721253735406
268,70.4450010974843
269,70.45278965761453
270,70.46057821774478
271,70.46836677787502
272,70.47615533800527
273,70.4839438981355
274,70.49173245826573
275,70.49952101839598
276,70.50730957852622
277,70.51509813865646
278,70.52288669878669
279,70.53067525891694
280,70.53846381904718
281,70.54625237917742
282,70.55404093930765
283,70.56182949943789
284,70.56961805956813
285,70.57740661969837
286,70.58519517982863
287,70.59298373995884
288,70.60077230008909
289,70.60856086021933
290,70.61634942034958
291,70.62413798047982
292,70.63192654061005
293,70.6397151007403
294,70.64750366087053
295,70.65529222100079
296,70.66308078113101
297,70.67086934126125
298,70.67865790139149
299,70.68644646152173
300,70.69423502165198
301,70.70202358178221
302,70.70981214191245
303,70.71760070204269
304,70.72538926217292
305,70.73317782230319
306,70.7409663824334
307,70.74875494256366
308,70.75654350269389
309,70.76433206282412
310,70.77212062295438
311,70.77990918308461
312,70.78769774321485
313,70.7954863033451
314,70.80327486347531
315,70.81106342360556
316,70.81885198373581
317,70.82664054386605
318,70.8344291039963
319,70.84221766412652
320,70.85000622425676
321,70.85779478438701
322,70.86558334451725
323,70.87337190464748
324,70.88116046477772
325,70.88894902490797
326,70.89673758503821
327,70.90452614516846
328,70.91231470529868
329,70.92010326542893
330,70.92789182555917
331,70.9356803856894
332,70.94346894581966
333,70.95125750594988
334,70.95904606608012
335,70.96683462621037
336,70.97462318634061
337,70.98241174647085
338,70.99020030660108
339,70.99798886673133
340,71.00577742686156
341,71.01356598699182
342,71.02135454712204
343,71.02914310725228
344,71.03693166738253
345,71.04472022751277
346,71.052508787643
347,71.06029734777324
348,71.06808590790348
349,71.07587446803373
350,71.08366302816397
351,71.0914515882942
352,71.09924014842443
353,71.1070287085547
354,71.11481726868494
355,71.12260582881517
356,71.1303943889454
357,71.13818294907564
358,71.14597150920588
359,71.15376006933613
360,71.16154862946637
361,71.16933718959659
362,71.17712574972684
363,71.18491430985708
364,71.19270286998733
365,71.20049143011757
366,71.20827999024779
367,71.21606855037804
368,71.22385711050828
369,71.23164567063853
370,71.23943423076877
371,71.247222790899
372,71.25501135102924
373,71.26279991115949
374,71.27058847128973
375,71.27837703141995
376,71.2861655915502
377,71.29395415168044
378,71.30174271181069
379,71.30953127194094
380,71.31731983207115
381,71.3251083922014
382,71.33289695233164
383,71.34068551246187
384,71.34847407259213
385,71.35626263272236
386,71.3640511928526
387,71.37183975298285
388,71.37962831311306
389,71.38741687324331
390,71.39520543337356
391,71.4029939935038
392,71.41078255363404
393,71.41857111376427
394,71.42635967389452
395,71.43414823402476
396,71.441936794155
397,71.44972535428523
398,71.45751391441546
399,71.46530247454572
400,71.47309103467595
401,71.4808795948062
402,71.48866815493643
403,71.49645671506667
404,71.50424527519692
405,71.51203383532716
406,71.51982239545741
407,71.52761095558762
408,71.53539951571788
409,71.54318807584812
410,71.55097663597836
411,71.5587651961086
412,71.56655375623883
413,71.57434231636907
414,71.5821308764993
415,71.58991943662956
416,71.5977079967598
417,71.60549655689003
418,71.61328511702027
419,71.62107367715052
420,71.62886223728077
421,71.63665079741101
422,71.64443935754123
423,71.65222791767147
424,71.66001647780172
425,71.66780503793196
426,71.67559359806219
427,71.68338215819243
428,71.69117071832267
429,71.69895927845292
430,71.70674783858315
431,71.71453639871339
432,71.72232495884363
433,71.73011351897388
434,71.73790207910413
435,71.74569063923434
436,71.75347919936459
437,71.76126775949483
438,71.76905631962507
439,71.77684487975532
440,71.78463343988555
441,71.79242200001579
442,71.80021056014603
443,71.80799912027628
444,71.81578768040652
445,71.82357624053675
446,71.83136480066698
447,71.83915336079724
448,71.84694192092749
449,71.8547304810577
450,71.86251904118795
451,71.87030760131819
452,71.87809616144844
453,71.88588472157869
454,71.89367328170891
455,71.90146184183916
456,71.90925040196939
457,71.91703896209962
458,71.92482752222988
459,71.9326160823601
460,71.94040464249034
461,71.94819320262059
462,71.95598176275081
463,71.96377032288108
464,71.97155888301131
465,71.97934744314155
466,71.9871360032718
467,71.99492456340201
468,72.00271312353226
469,72.01050168366253
470,72.01829024379275
471,72.02607880392299
472,72.03386736405322
473,72.04165592418346
474,72.04944448431371
475,72.05723304444395
476,72.06502160457418
477,72.07281016470442
478,72.08059872483467
479,72.08838728496491
480,72.09617584509516
481,72.10396440522537
482,72.11175296535562
483,72.11954152548587
484,72.12733008561611
485,72.13511864574635
486,72.14290720587658
487,72.15069576600682
488,72.15848432613707
489,72.16627288626731
490,72.17406144639754
491,72.18185000652778
492,72.18963856665802
493,72.19742712678827
494,72.20521568691849
495,72.21300424704873
496,72.22079280717898
497,72.22858136730922
498,72.23636992743947
499,72.2441584875697
500,72.25194704769994
501,72.2597356078302
502,72.26752416796043
503,72.27531272809067
504,72.2831012882209
505,72.29088984835114
506,72.29867840848138
507,72.30646696861162
508,72.31425552874188
509,72.32204408887209
510,72.32983264900234
511,72.33762120913258
512,72.34540976926282
513,72.35319832939307
514,72.36098688952329
515,72.36877544965355
516,72.37656400978378
517,72.38435256991404
518,72.39214113004427
519,72.3999296901745
520,72.40771825030474
521,72.41550681043498
522,72.42329537056523
523,72.43108393069545
524,72.4388724908257
525,72.44666105095594
526,72.45444961108619
527,72.46223817121644
528,72.47002673134665
529,72.4778152914769
530,72.48560385160714
531,72.49339241173737
532,72.50118097186763
533,72.50896953199786
534,72.5167580921281
535,72.52454665225835
536,72.53233521238856
537,72.54012377251883
538,72.54791233264906
539,72.5557008927793
540,72.56348945290955
541,72.57127801303977
542,72.57906657317001
543,72.58685513330026
544,72.5946436934305
545,72.60243225356074
546,72.61022081369097
547,72.61800937382122
548,72.62579793395146
549,72.63358649408171
550,72.64137505421193
551,72.64916361434217
552,72.65695217447242
553,72.66474073460265
554,72.67252929473291
555,72.68031785486313
556,72.68810641499337
557,72.69589497512362
558,72.70368353525386
559,72.7114720953841
560,72.71926065551433
561,72.72704921564456
562,72.7348377757748
563,72.74262633590507
564,72.7504148960353
565,72.75820345616553
566,72.76599201629577
567,72.77378057642602
568,72.78156913655626
569,72.7893576966865
570,72.79714625681673
571,72.80493481694697
572,72.81272337707722
573,72.82051193720746
574,72.82830049733771
575,72.83608905746794
576,72.84387761759817
577,72.85166617772842
578,72.85945473785866
579,72.86724329798889
580,72.87503185811913
581,72.88282041824938
582,72.89060897837962
583,72.89839753850984
584,72.90618609864009
585,72.91397465877033
586,72.92176321890057
587,72.9295517790308
588,72.93734033916104
589,72.94512889929129
590,72.95291745942153
591,72.96070601955176
592,72.96849457968202
593,72.97628313981225
594,72.98407169994249
595,72.99186026007274
596,72.99964882020295
597,73.00743738033323
598,73.01522594046345
599,73.02301450059369
600,73.03080306072394
601,73.03859162085416
602,73.0463801809844
603,73.05416874111465
604,73.06195730124489
605,73.06974586137513
606,73.07753442150536
607,73.08532298163561
608,73.09311154176584
609,73.1009001018961
610,73.10868866202631
611,73.11647722215656
612,73.12426578228681
613,73.13205434241705
614,73.13984290254729
615,73.14763146267752
616,73.15542002280777
617,73.16320858293801
618,73.17099714306825
619,73.17878570319849
620,73.18657426332871
621,73.19436282345896
622,73.2021513835892
623,73.20993994371945
624,73.21772850384968
625,73.22551706397992
626,73.23330562411016
627,73.24109418424041
628,73.24888274437066
629,73.25667130450087
630,73.26445986463114
631,73.27224842476136
632,73.28003698489161
633,73.28782554502185
634,73.29561410515208
635,73.30340266528232
636,73.31119122541256
637,73.31897978554281
638,73.32676834567305
639,73.33455690580328
640,73.34234546593352
641,73.35013402606377
642,73.35792258619402
643,73.36571114632423
644,73.37349970645448
645,73.38128826658472
646,73.38907682671497
647,73.3968653868452
648,73.40465394697544
649,73.41244250710568
650,73.42023106723592
651,73.42801962736617
652,73.4358081874964
653,73.44359674762664
654,73.45138530775687
655,73.45917386788713
656,73.46696242801738
657,73.47475098814759
658,73.48253954827784
659,73.49032810840808
660,73.49811666853832
661,73.50590522866857
662,73.5136937887988
663,73.52148234892904
664,73.52927090905928
665,73.53705946918951
666,73.54484802931977
667,73.55263658945
668,73.56042514958023
669,73.56821370971048
670,73.57600226984071
671,73.58379082997097
672,73.5915793901012
673,73.59936795023144
674,73.60715651036169
675,73.6149450704919
676,73.62273363062216
677,73.63052219075242
678,73.63831075088264
679,73.64609931101288
680,73.65388787114311
681,73.66167643127335
682,73.66946499140359
683,73.67725355153384
684,73.68504211166406
685,73.69283067179431
686,73.70061923192456
687,73.7084077920548
688,73.71619635218505
689,73.72398491231526
690,73.73177347244551
691,73.73956203257578
692,73.747350592706
693,73.75513915283624
694,73.76292771296647
695,73.77071627309671
696,73.77850483322696
697,73.7862933933572
698,73.79408195348744
699,73.80187051361767
700,73.80965907374791
701,73.81744763387816
702,73.82523619400841
703,73.83302475413862
704,73.84081331426887
705,73.84860187439912
706,73.85639043452936
707,73.8641789946596
708,73.87196755478983
709,73.87975611492006
710,73.88754467505032
711,73.89533323518056
712,73.9031217953108
713,73.91091035544103
714,73.91869891557127
715,73.9264874757015
716,73.93427603583177
717,73.942064595962
718,73.94985315609223
719,73.95764171622247
720,73.96543027635272
721,73.97321883648296
722,73.98100739661321
723,73.98879595674345
724,73.99658451687367
725,74.00437307700392
726,74.01216163713416
727,74.01995019726441
728,74.02773875739463
729,74.03552731752487
730,74.04331587765512
731,74.05110443778536
732,74.05889299791559
733,74.06668155804583
734,74.07447011817607
735,74.08225867830632
736,74.09004723843654
737,74.0978357985668
738,74.10562435869703
739,74.11341291882727
740,74.12120147895752
741,74.12899003908775
742,74.13677859921799
743,74.14456715934823
744,74.15235571947845
745,74.16014427960872
746,74.16793283973895
747,74.17572139986919
748,74.18350995999944
749,74.19129852012965
750,74.1990870802599
751,74.20687564039015
752,74.21466420052039
753,74.22245276065063
754,74.23024132078086
755,74.23802988091111
756,74.24581844104135
757,74.2536070011716
758,74.26139556130181
759,74.26918412143206
760,74.27697268156231
761,74.28476124169255
762,74.2925498018228
763,74.30033836195302
764,74.30812692208326
765,74.31591548221351
766,74.32370404234375
767,74.33149260247399
768,74.33928116260422
769,74.34706972273445
770,74.3548582828647
771,74.36264684299496
772,74.37043540312519
773,74.37822396325542
774,74.38601252338566
775,74.3938010835159
776,74.40158964364615
777,74.40937820377638
778,74.41716676390662
779,74.42495532403686
780,74.43274388416711
781,74.44053244429735
782,74.44832100442757
783,74.4561095645578
784,74.46389812468806
785,74.47168668481831
786,74.47947524494855
787,74.48726380507878
788,74.49505236520902
789,74.50284092533927
790,74.51062948546951
791,74.51841804559973
792,74.52620660572998
793,74.53399516586022
794,74.54178372599046
795,74.5495722861207
796,74.55736084625093
797,74.56514940638118
798,74.57293796651142
799,74.58072652664166
800,74.5885150867719
801,74.59630364690214
802,74.60409220703238
803,74.61188076716263
804,74.61966932729284
805,74.62745788742309
806,74.63524644755334
807,74.64303500768358
808,74.65082356781382
809,74.65861212794405
810,74.66640068807429
811,74.67418924820454
812,74.68197780833478
813,74.68976636846502
814,74.69755492859525
815,74.7053434887255
816,74.71313204885574
817,74.72092060898599
818,74.7287091691162
819,74.73649772924645
820,74.7442862893767
821,74.75207484950694
822,74.75986340963719
823,74.76765196976741
824,74.77544052989765
825,74.7832290900279
826,74.79101765015814
827,74.79880621028838
828,74.8065947704186
829,74.81438333054884
830,74.82217189067909
831,74.82996045080935
832,74.83774901093958
833,74.84553757106981
834,74.85332613120006
835,74.8611146913303
836,74.86890325146054
837,74.87669181159076
838,74.88448037172103
839,74.89226893185126
840,74.9000574919815
841,74.90784605211174
842,74.91563461224196
843,74.92342317237221
844,74.93121173250245
845,74.9390002926327
846,74.94678885276294
847,74.95457741289317
848,74.96236597302341
849,74.97015453315366
850,74.97794309328391
851,74.98573165341412
852,74.99352021354437
853,75.00130877367461
854,75.00909733380486
855,75.01688589393508
856,75.02467445406533
857,75.03246301419557
858,75.04025157432581
859,75.04804013445606
860,75.0558286945863
861,75.06361725471653
862,75.07140581484677
863,75.07919437497699
864,75.08698293510727
865,75.09477149523751
866,75.10256005536773
867,75.11034861549797
868,75.1181371756282
869,75.12592573575846
870,75.1337142958887
871,75.14150285601893
872,75.14929141614917
873,75.1570799762794
874,75.16486853640966
875,75.17265709653991
876,75.18044565667012
877,75.18823421680038
878,75.19602277693059
879,75.20381133706086
880,75.21159989719109
881,75.21938845732133
882,75.22717701745157
883,75.2349655775818
884,75.24275413771205
885,75.25054269784229
886,75.25833125797253
887,75.26611981810277
888,75.273908378233
889,75.28169693836325
890,75.28948549849348
891,75.29727405862373
892,75.30506261875395
893,75.3128511788842
894,75.32063973901445
895,75.32842829914469
896,75.33621685927494
897,75.34400541940515
898,75.35179397953542
899,75.35958253966567
900,75.36737109979589
901,75.37515965992613
902,75.38294822005636
903,75.3907367801866
904,75.39852534031684
905,75.40631390044709
906,75.41410246057733
907,75.42189102070756
908,75.42967958083781
909,75.43746814096805
910,75.4452567010983
911,75.45304526122851
912,75.46083382135876
913,75.46862238148901
914,75.47641094161925
915,75.48419950174949
916,75.49198806187972
917,75.49977662200996
918,75.50756518214021
919,75.51535374227045
920,75.52314230240069
921,75.53093086253092
922,75.53871942266115
923,75.54650798279141
924,75.55429654292166
925,75.56208510305187
926,75.56987366318212
927,75.57766222331236
928,75.58545078344261
929,75.59323934357285
930,75.60102790370308
931,75.6088164638333
932,75.61660502396357
933,75.62439358409381
934,75.63218214422405
935,75.63997070435428
936,75.64775926448452
937,75.65554782461476
938,75.66333638474502
939,75.67112494487525
940,75.67891350500548
941,75.68670206513572
942,75.69449062526596
943,75.70227918539621
944,75.71006774552644
945,75.7178563056567
946,75.72564486578692
947,75.73343342591716
948,75.7412219860474
949,75.74901054617764
950,75.75679910630788
951,75.76458766643812
952,75.77237622656834
953,75.78016478669859
954,75.78795334682884
955,75.79574190695908
956,75.8035304670893
957,75.81131902721954
958,75.81910758734979
959,75.82689614748004
960,75.83468470761028
961,75.84247326774052
962,75.85026182787075
963,75.858050388001
964,75.86583894813124
965,75.87362750826148
966,75.88141606839172
967,75.88920462852195
968,75.8969931886522
969,75.90478174878244
970,75.91257030891269
971,75.9203588690429
972,75.92814742917315
973,75.9359359893034
974,75.94372454943364
975,75.95151310956388
976,75.95930166969411
977,75.96709022982434
978,75.9748787899546
979,75.98266735008485
980,75.99045591021508
981,75.99824447034531
982,76.00603303047555
983,76.01382159060579
984,76.02161015073605
985,76.02939871086627
986,76.03718727099651
987,76.04497583112675
988,76.052764391257
989,76.06055295138724
990,76.06834151151747
991,76.0761300716477
992,76.08391863177795
993,76.09170719190821
994,76.09949575203844
995,76.10728431216867
996,76.11507287229891
997,76.12286143242915
998,76.1306499925594
999,76.13843855268964
1000,76.14622711281987
1001,76.15401567295011
1002,76.16180423308035
1003,76.1695927932106
1004,76.17738135334082
1005,76.18516991347106
1006,76.19295847360131
1007,76.20074703373155
1008,76.2085355938618
1009,76.21632415399203
1010,76.22411271412227
1011,76.23190127425252
1012,76.23968983438273
1013,76.247478394513
1014,76.25526695464323
1015,76.26305551477347
1016,76.2708440749037
1017,76.27863263503394
1018,76.28642119516421
1019,76.29420975529443
1020,76.30199831542467
1021,76.3097868755549
1022,76.31757543568516
1023,76.32536399581541
1024,76.33315255594563
1025,76.34094111607588
1026,76.34872967620609
1027,76.35651823633636
1028,76.3643067964666
1029,76.37209535659683
1030,76.37988391672707
1031,76.3876724768573
1032,76.39546103698754
1033,76.40324959711779
1034,76.41103815724803
1035,76.41882671737827
1036,76.4266152775085
1037,76.43440383763875
1038,76.44219239776898
1039,76.44998095789924
1040,76.45776951802947
1041,76.4655580781597
1042,76.47334663828995
1043,76.48113519842019
1044,76.48892375855043
1045,76.49671231868066
1046,76.5045008788109
1047,76.51228943894115
1048,76.52007799907139
1049,76.52786655920163
1050,76.53565511933185
1051,76.54344367946209
1052,76.55123223959234
1053,76.55902079972259
1054,76.56680935985283
1055,76.57459791998306
1056,76.5823864801133
1057,76.59017504024355
1058,76.59796360037379
1059,76.60575216050404
1060,76.61354072063428
1061,76.6213292807645
1062,76.62911784089475
1063,76.63690640102499
1064,76.64469496115521
1065,76.65248352128546
1066,76.6602720814157
1067,76.66806064154595
1068,76.67584920167619
1069,76.68363776180642
1070,76.69142632193666
1071,76.69921488206691
1072,76.70700344219716
1073,76.7147920023274
1074,76.72258056245762
1075,76.73036912258786
1076,76.73815768271811
1077,76.74594624284833
1078,76.75373480297858
1079,76.76152336310882
1080,76.76931192323906
1081,76.77710048336931
1082,76.78488904349955
1083,76.79267760362978
1084,76.80046616376
1085,76.80825472389027
1086,76.81604328402052
1087,76.82383184415075
1088,76.83162040428098
1089,76.83940896441122
1090,76.84719752454146
1091,76.85498608467171
1092,76.86277464480195
1093,76.87056320493218
1094,76.87835176506242
1095,76.88614032519266
1096,76.89392888532291
1097,76.90171744545314
1098,76.90950600558337
1099,76.91729456571362
1100,76.92508312584386
1101,76.93287168597409
1102,76.94066024610434
1103,76.94844880623458
1104,76.95623736636482
1105,76.96402592649504
1106,76.9718144866253
1107,76.97960304675554
1108,76.98739160688578
1109,76.99518016701602
1110,77.00296872714625
1111,77.01075728727649
1112,77.01854584740673
1113,77.02633440753698
1114,77.03412296766722
1115,77.04191152779745
1116,77.0497000879277
1117,77.05748864805794
1118,77.06527720818819
1119,77.0730657683184
1120,77.08085432844865
1121,77.08864288857892
1122,77.09643144870914
1123,77.10422000883938
1124,77.11200856896961
1125,77.11979712909985
1126,77.12758568923009
1127,77.13537424936034
1128,77.14316280949058
1129,77.15095136962081
1130,77.15873992975105
1131,77.1665284898813
1132,77.17431705001155
1133,77.18210561014179
1134,77.18989417027201
1135,77.19768273040225
1136,77.2054712905325
1137,77.21325985066274
1138,77.22104841079297
1139,77.22883697092321
1140,77.23662553105346
1141,77.2444140911837
1142,77.25220265131394
1143,77.25999121144417
1144,77.2677797715744
1145,77.27556833170466
1146,77.28335689183491
1147,77.29114545196514
1148,77.29893401209537
1149,77.30672257222561
1150,77.31451113235585
1151,77.3222996924861
1152,77.33008825261633
1153,77.33787681274656
1154,77.34566537287681
1155,77.35345393300705
1156,77.3612424931373
1157,77.36903105326752
1158,77.37681961339777
1159,77.38460817352801
1160,77.39239673365825
1161,77.4001852937885
1162,77.40797385391873
1163,77.41576241404897
1164,77.42355097417921
1165,77.43133953430943
1166,77.43912809443971
1167,77.44691665456995
1168,77.45470521470017
1169,77.4624937748304
1170,77.47028233496064
1171,77.47807089509091
1172,77.48585945522113
1173,77.49364801535137
1174,77.50143657548159
1175,77.50922513561184
1176,77.5170136957421
1177,77.52480225587233
1178,77.53259081600255
1179,77.54037937613279
1180,77.54816793626304
1181,77.55595649639329
1182,77.56374505652353
1183,77.57153361665377
1184,77.579322176784
1185,77.58711073691424
1186,77.59489929704449
1187,77.60268785717473
1188,77.61047641730497
1189,77.6182649774352
1190,77.62605353756544
1191,77.63384209769569
1192,77.64163065782594
1193,77.64941921795617
1194,77.6572077780864
1195,77.66499633821664
1196,77.67278489834689
1197,77.68057345847713
1198,77.68836201860736
1199,77.69615057873759
1200,77.70393913886785
1201,77.7117276989981
1202,77.71951625912833
1203,77.72730481925856
1204,77.7350933793888
1205,77.74288193951904
1206,77.7506704996493
1207,77.75845905977953
1208,77.76624761990976
1209,77.77403618004001
1210,77.78182474017024
1211,77.78961330030049
1212,77.79740186043071
1213,77.80519042056095
1214,77.8129789806912
1215,77.82076754082144
1216,77.82855610095169
1217,77.83634466108192
1218,77.84413322121216
1219,77.8519217813424
1220,77.85971034147262
1221,77.86749890160289
1222,77.87528746173312
1223,77.88307602186336
1224,77.89086458199358
1225,77.89865314212383
1226,77.9064417022541
1227,77.91423026238431
1228,77.92201882251456
1229,77.9298073826448
1230,77.93759594277505
1231,77.94538450290528
1232,77.95317306303552
1233,77.96096162316577
1234,77.96875018329601
1235,77.97653874342625
1236,77.98432730355648
1237,77.99211586368672
1238,77.99990442381696
1239,78.0076929839472
1240,78.01548154407746
1241,78.02327010420768
1242,78.03105866433792
1243,78.03884722446816
1244,78.04663578459841
1245,78.05442434472864
1246,78.06221290485888
1247,78.07000146498913
1248,78.07779002511936
1249,78.08557858524959
1250,78.09336714537984
1251,78.10115570551008
1252,78.10894426564032
1253,78.11673282577055
1254,78.12452138590079
1255,78.13230994603104
1256,78.14009850616128
1257,78.14788706629152
1258,78.15567562642175
1259,78.16346418655198
1260,78.17125274668223
1261,78.1790413068125
1262,78.18682986694272
1263,78.19461842707295
1264,78.2024069872032
1265,78.21019554733344
1266,78.21798410746368
1267,78.22577266759392
1268,78.23356122772415
1269,78.2413497878544
1270,78.24913834798464
1271,78.25692690811488
1272,78.2647154682451
1273,78.27250402837534
1274,78.28029258850559
1275,78.28808114863584
1276,78.29586970876608
1277,78.30365826889631
1278,78.31144682902655
1279,78.3192353891568
1280,78.32702394928704
1281,78.33481250941729
1282,78.34260106954751
1283,78.35038962967775
1284,78.358178189808
1285,78.36596674993822
1286,78.37375531006846
1287,78.38154387019871
1288,78.38933243032895
1289,78.3971209904592
1290,78.40490955058944
1291,78.41269811071967
1292,78.42048667084991
1293,78.42827523098016
1294,78.43606379111041
1295,78.44385235124065
1296,78.45164091137087
1297,78.45942947150111
1298,78.46721803163135
1299,78.47500659176158
1300,78.48279515189184
1301,78.49058371202207
1302,78.49837227215231
1303,78.50616083228255
1304,78.5139493924128
1305,78.52173795254303
1306,78.52952651267326
1307,78.53731507280352
1308,78.54510363293375
1309,78.552892193064
1310,78.56068075319423
1311,78.56846931332447
1312,78.57625787345471
1313,78.58404643358494
1314,78.5918349937152
1315,78.59962355384543
1316,78.60741211397567
1317,78.6152006741059
1318,78.62298923423614
1319,78.63077779436641
1320,78.63856635449662
1321,78.64635491462687
1322,78.65414347475709
1323,78.66193203488734
1324,78.6697205950176
1325,78.67750915514783
1326,78.68529771527807
1327,78.69308627540829
1328,78.70087483553856
1329,78.7086633956688
1330,78.71645195579903
1331,78.72424051592927
1332,78.7320290760595
1333,78.73981763618974
1334,78.74760619631998
1335,78.75539475645023
1336,78.76318331658047
1337,78.7709718767107
1338,78.77876043684094
1339,78.78654899697119
1340,78.79433755710144
1341,78.80212611723168
1342,78.8099146773619
1343,78.81770323749214
1344,78.82549179762239
1345,78.83328035775263
1346,78.84106891788286
1347,78.8488574780131
1348,78.85664603814334
1349,78.86443459827359
1350,78.87222315840383
1351,78.88001171853406
1352,78.88780027866429
1353,78.89558883879455
1354,78.9033773989248
1355,78.91116595905503
1356,78.91895451918526
1357,78.9267430793155
1358,78.93453163944574
1359,78.94232019957599
1360,78.95010875970623
1361,78.95789731983645
1362,78.96568587996671
1363,78.97347444009694
1364,78.98126300022719
1365,78.98905156035742
1366,78.99684012048765
1367,79.0046286806179
1368,79.01241724074814
1369,79.02020580087839
1370,79.02799436100862
1371,79.03578292113886
1372,79.0435714812691
1373,79.05136004139932
1374,79.0591486015296
1375,79.06693716165981
1376,79.07472572179006
1377,79.0825142819203
1378,79.09030284205053
1379,79.09809140218077
1380,79.10587996231102
1381,79.11366852244126
1382,79.1214570825715
1383,79.12924564270173
1384,79.13703420283198
1385,79.14482276296222
1386,79.15261132309246
1387,79.16039988322271
1388,79.16818844335293
1389,79.1759770034832
1390,79.18376556361342
1391,79.19155412374366
1392,79.19934268387391
1393,79.20713124400413
1394,79.21491980413438
1395,79.22270836426462
1396,79.23049692439486
1397,79.2382854845251
1398,79.24607404465533
1399,79.25386260478558
1400,79.2616511649158
1401,79.26943972504606
1402,79.27722828517629
1403,79.28501684530653
1404,79.29280540543678
1405,79.30059396556702
1406,79.30838252569725
1407,79.31617108582748
1408,79.32395964595774
1409,79.33174820608798
1410,79.33953676621822
1411,79.34732532634845
1412,79.35511388647869
1413,79.36290244660893
1414,79.3706910067392
1415,79.37847956686942
1416,79.38626812699965
1417,79.39405668712989
1418,79.40184524726013
1419,79.40963380739038
1420,79.41742236752063
1421,79.42521092765084
1422,79.43299948778109
1423,79.44078804791135
1424,79.44857660804158
1425,79.45636516817181
1426,79.46415372830205
1427,79.47194228843229
1428,79.47973084856254
1429,79.48751940869278
1430,79.49530796882301
1431,79.50309652895325
1432,79.51088508908349
1433,79.51867364921374
1434,79.52646220934399
1435,79.5342507694742
1436,79.54203932960445
1437,79.54982788973469
1438,79.55761644986494
1439,79.56540500999517
1440,79.57319357012541
1441,79.58098213025566
1442,79.5887706903859
1443,79.59655925051614
1444,79.60434781064637
1445,79.61213637077661
1446,79.61992493090683
1447,79.62771349103708
1448,79.63550205116735
1449,79.64329061129756
1450,79.65107917142781
1451,79.65886773155805
1452,79.66665629168828
1453,79.67444485181855
1454,79.68223341194877
1455,79.69002197207902
1456,79.69781053220926
1457,79.7055990923395
1458,79.71338765246973
1459,79.72117621259997
1460,79.72896477273021
1461,79.73675333286045
1462,79.74454189299071
1463,79.75233045312093
1464,79.76011901325117
1465,79.76790757338141
1466,79.77569613351164
1467,79.78348469364191
1468,79.79127325377212
1469,79.79906181390238
1470,79.80685037403259
1471,79.81463893416284
1472,79.8224274942931
1473,79.83021605442333
1474,79.83800461455357
1475,79.8457931746838
1476,79.85358173481404
1477,79.8613702949443
1478,79.86915885507453
1479,79.87694741520477
1480,79.88473597533499
1481,79.89252453546523
1482,79.90031309559551
1483,79.90810165572573
1484,79.91589021585597
1485,79.9236787759862
1486,79.93146733611644
1487,79.93925589624669
1488,79.94704445637693
1489,79.95483301650717
1490,79.9626215766374
1491,79.97041013676764
1492,79.97819869689789
1493,79.98598725702813
1494,79.99377581715838
1495,80.00156437728859
1496,80.00935293741884
1497,80.01714149754909
1498,80.02493005767933
1499,80.03271861780956
1500,80.0405071779398
1501,80.04829573807005
1502,80.05608429820029
1503,80.06387285833054
1504,80.07166141846076
1505,80.079449978591
1506,80.08723853872124
1507,80.09502709885147
1508,80.10281565898174
1509,80.11060421911196
1510,80.1183927792422
1511,80.12618133937244
1512,80.13396989950269
1513,80.14175845963292
1514,80.14954701976316
1515,80.15733557989341
1516,80.16512414002364
1517,80.1729127001539
1518,80.18070126028412
1519,80.18848982041436
1520,80.1962783805446
1521,80.20406694067483
1522,80.21185550080509
1523,80.21964406093532
1524,80.22743262106556
1525,80.2352211811958
1526,80.24300974132602
1527,80.2507983014563
1528,80.25858686158651
1529,80.26637542171676
1530,80.274163981847
1531,80.28195254197723
1532,80.28974110210748
1533,80.29752966223772
1534,80.30531822236796
1535,80.31310678249821
1536,80.32089534262845
1537,80.32868390275868
1538,80.33647246288892
1539,80.34426102301916
1540,80.35204958314941
1541,80.35983814327963
1542,80.36762670340987
1543,80.37541526354012
1544,80.38320382367036
1545,80.3909923838006
1546,80.39878094393083
1547,80.40656950406108
1548,80.41435806419132
1549,80.42214662432157
1550,80.4299351844518
1551,80.43772374458203
1552,80.44551230471228
1553,80.45330086484252
1554,80.46108942497277
1555,80.46887798510299
1556,80.47666654523323
1557,80.48445510536348
1558,80.49224366549372
1559,80.50003222562395
1560,80.50782078575419
1561,80.51560934588444
1562,80.5233979060147
1563,80.53118646614493
1564,80.53897502627515
1565,80.54676358640539
1566,80.55455214653563
1567,80.56234070666588
1568,80.57012926679612
1569,80.57791782692635
1570,80.58570638705659
1571,80.59349494718683
1572,80.60128350731708
1573,80.60907206744731
1574,80.61686062757754
1575,80.6246491877078
1576,80.63243774783803
1577,80.64022630796828
1578,80.64801486809851
1579,80.65580342822875
1580,80.66359198835899
1581,80.67138054848922
1582,80.67916910861948
1583,80.6869576687497
1584,80.69474622887996
1585,80.70253478901019
1586,80.71032334914042
1587,80.71811190927069
1588,80.7259004694009
1589,80.73368902953115
1590,80.74147758966139
1591,80.74926614979162
1592,80.75705470992187
1593,80.76484327005211
1594,80.77263183018235
1595,80.7804203903126
1596,80.78820895044281
1597,80.79599751057306
1598,80.80378607070331
1599,80.81157463083355
1600,80.81936319096378
1601,80.82715175109402
1602,80.83494031122427
1603,80.84272887135451
1604,80.85051743148475
1605,80.85830599161498
1606,80.86609455174522
1607,80.87388311187547
1608,80.8816716720057
1609,80.88946023213596
1610,80.89724879226618
1611,80.90503735239643
1612,80.91282591252667
1613,80.92061447265691
1614,80.92840303278714
1615,80.93619159291738
1616,80.94398015304763
1617,80.95176871317787
1618,80.95955727330809
1619,80.96734583343834
1620,80.97513439356858
1621,80.98292295369883
1622,80.99071151382905
1623,80.99850007395929
1624,81.00628863408954
1625,81.01407719421978
1626,81.02186575435003
1627,81.02965431448027
1628,81.0374428746105
1629,81.04523143474073
1630,81.053019994871
1631,81.06080855500123
1632,81.06859711513147
1633,81.0763856752617
1634,81.08417423539194
1635,81.09196279552218
1636,81.09975135565244
1637,81.10753991578267
1638,81.1153284759129
1639,81.12311703604314
1640,81.13090559617338
1641,81.13869415630363
1642,81.14648271643388
1643,81.15427127656409
1644,81.16205983669434
1645,81.16984839682458
1646,81.17763695695483
1647,81.18542551708506
1648,81.1932140772153
1649,81.20100263734554
1650,81.20879119747579
1651,81.21657975760603
1652,81.22436831773626
1653,81.2321568778665
1654,81.23994543799672
1655,81.24773399812699
1656,81.25552255825724
1657,81.26331111838745
1658,81.2710996785177
1659,81.27888823864794
1660,81.28667679877819
1661,81.29446535890844
1662,81.30225391903866
1663,81.31004247916891
1664,81.31783103929915
1665,81.32561959942939
1666,81.33340815955962
1667,81.34119671968986
1668,81.34898527982008
1669,81.35677383995034
1670,81.3645624000806
1671,81.37235096021081
1672,81.38013952034106
1673,81.3879280804713
1674,81.39571664060153
1675,81.40350520073179
1676,81.41129376086202
1677,81.41908232099227
1678,81.4268708811225
1679,81.43465944125273
1680,81.44244800138299
1681,81.45023656151321
1682,81.45802512164346
1683,81.4658136817737
1684,81.47360224190393
1685,81.48139080203418
1686,81.48917936216442
1687,81.49696792229466
1688,81.50475648242491
1689,81.51254504255512
1690,81.52033360268537
1691,81.52812216281563
1692,81.53591072294586
1693,81.5436992830761
1694,81.55148784320633
1695,81.55927640333658
1696,81.56706496346682
1697,81.57485352359706
1698,81.5826420837273
1699,81.59043064385753
1700,81.59821920398778
1701,81.60600776411802
1702,81.61379632424827
1703,81.62158488437848
1704,81.62937344450873
1705,81.63716200463898
1706,81.64495056476922
1707,81.65273912489945
1708,81.66052768502969
1709,81.66831624515994
1710,81.67610480529018
1711,81.68389336542042
1712,81.69168192555065
1713,81.69947048568089
1714,81.70725904581113
1715,81.71504760594136
1716,81.72283616607163
1717,81.73062472620184
1718,81.73841328633209
1719,81.74620184646233
1720,81.75399040659258
1721,81.76177896672282
1722,81.76956752685305
1723,81.7773560869833
1724,81.78514464711353
1725,81.79293320724379
1726,81.80072176737401
1727,81.80851032750425
1728,81.81629888763449
1729,81.82408744776473
1730,81.83187600789498
1731,81.83966456802521
1732,81.84745312815545
1733,81.85524168828569
1734,81.86303024841592
1735,81.87081880854619
1736,81.8786073686764
1737,81.88639592880666
1738,81.89418448893689
1739,81.90197304906712
1740,81.90976160919737
1741,81.91755016932761
1742,81.92533872945785
1743,81.93312728958809
1744,81.94091584971831
1745,81.94870440984856
1746,81.95649296997881
1747,81.96428153010905
1748,81.97207009023927
1749,81.97985865036952
1750,81.98764721049976
1751,81.99543577063001
1752,82.00322433076025
1753,82.01101289089048
1754,82.01880145102072
1755,82.02659001115097
1756,82.03437857128121
1757,82.04216713141146
1758,82.0499556915417
1759,82.05774425167192
1760,82.06553281180217
1761,82.07332137193241
1762,82.08110993206266
1763,82.08889849219288
1764,82.09668705232312
1765,82.10447561245337
1766,82.11226417258361
1767,82.12005273271384
1768,82.12784129284408
1769,82.1356298529743
1770,82.14341841310457
1771,82.15120697323479
1772,82.15899553336504
1773,82.16678409349528
1774,82.17457265362552
1775,82.18236121375577
1776,82.190149773886
1777,82.19793833401624
1778,82.20572689414648
1779,82.21351545427672
1780,82.22130401440697
1781,82.2290925745372
1782,82.23688113466743
1783,82.2446696947977
1784,82.25245825492792
1785,82.26024681505817
1786,82.2680353751884
1787,82.27582393531864
1788,82.28361249544888
1789,82.29140105557913
1790,82.29918961570937
1791,82.30697817583959
1792,82.31476673596984
1793,82.32255529610008
1794,82.33034385623031
1795,82.33813241636057
1796,82.34592097649079
1797,82.35370953662104
1798,82.36149809675128
1799,82.36928665688151
1800,82.37707521701176
1801,82.384863777142
1802,82.39265233727224
1803,82.40044089740249
1804,82.40822945753273
1805,82.41601801766295
1806,82.4238065777932
1807,82.43159513792344
1808,82.43938369805367
1809,82.44717225818394
1810,82.45496081831415
1811,82.4627493784444
1812,82.47053793857464
1813,82.47832649870487
1814,82.48611505883513
1815,82.49390361896536
1816,82.5016921790956
1817,82.50948073922585
1818,82.51726929935606
1819,82.52505785948631
1820,82.53284641961656
1821,82.5406349797468
1822,82.54842353987705
1823,82.55621210000727
1824,82.56400066013752
1825,82.57178922026776
1826,82.579577780398
1827,82.58736634052823
1828,82.59515490065847
1829,82.60294346078872
1830,82.61073202091895
1831,82.61852058104921
1832,82.62630914117943
1833,82.63409770130967
1834,82.64188626143992
1835,82.64967482157016
1836,82.65746338170041
1837,82.66525194183063
1838,82.67304050196088
1839,82.68082906209112
1840,82.68861762222136
1841,82.6964061823516
1842,82.70419474248183
1843,82.71198330261207
1844,82.7197718627423
1845,82.72756042287256
1846,82.7353489830028
1847,82.74313754313303
1848,82.75092610326328
1849,82.75871466339352
1850,82.76650322352377
1851,82.77429178365401
1852,82.78208034378423
1853,82.78986890391448
1854,82.79765746404472
1855,82.80544602417496
1856,82.81323458430519
1857,82.82102314443543
1858,82.82881170456568
1859,82.83660026469592
1860,82.84438882482615
1861,82.85217738495639
1862,82.85996594508663
1863,82.86775450521688
1864,82.87554306534713
1865,82.88333162547734
1866,82.89112018560759
1867,82.89890874573783
1868,82.90669730586808
1869,82.91448586599832
1870,82.92227442612855
1871,82.93006298625879
1872,82.93785154638903
1873,82.94564010651928
1874,82.95342866664951
1875,82.96121722677975
1876,82.96900578690997
1877,82.97679434704024
1878,82.98458290717049
1879,82.9923714673007
1880,83.00016002743095
1881,83.00794858756119
1882,83.01573714769142
1883,83.02352570782169
1884,83.03131426795191
1885,83.03910282808216
1886,83.0468913882124
1887,83.05467994834262
1888,83.06246850847288
1889,83.07025706860311
1890,83.07804562873334
1891,83.08583418886359
1892,83.09362274899382
1893,83.10141130912406
1894,83.10919986925431
1895,83.11698842938455
1896,83.1247769895148
1897,83.13256554964501
1898,83.14035410977527
1899,83.14814266990552
1900,83.15593123003575
1901,83.16371979016598
1902,83.17150835029622
1903,83.17929691042646
1904,83.18708547055671
1905,83.19487403068695
1906,83.20266259081718
1907,83.21045115094742
1908,83.21823971107767
1909,83.22602827120791
1910,83.23381683133816
1911,83.24160539146837
1912,83.24939395159862
1913,83.25718251172887
1914,83.26497107185911
1915,83.27275963198935
1916,83.28054819211958
1917,83.28833675224982
1918,83.29612531238007
1919,83.30391387251031
1920,83.31170243264054
1921,83.31949099277078
1922,83.32727955290102
1923,83.33506811303127
1924,83.34285667316149
1925,83.35064523329173
1926,83.35843379342198
1927,83.36622235355222
1928,83.37401091368247
1929,83.3817994738127
1930,83.38958803394294
1931,83.3973765940732
1932,83.40516515420343
1933,83.41295371433367
1934,83.4207422744639
1935,83.42853083459414
1936,83.43631939472438
1937,83.44410795485462
1938,83.45189651498488
1939,83.45968507511509
1940,83.46747363524534
1941,83.47526219537558
1942,83.48305075550581
1943,83.49083931563607
1944,83.4986278757663
1945,83.50641643589655
1946,83.51420499602678
1947,83.52199355615701
1948,83.52978211628727
1949,83.5375706764175
1950,83.54535923654774
1951,83.55314779667798
1952,83.5609363568082
1953,83.56872491693846
1954,83.5765134770687
1955,83.58430203719894
1956,83.59209059732919
1957,83.5998791574594
1958,83.60766771758965
1959,83.61545627771991
1960,83.62324483785014
1961,83.63103339798037
1962,83.63882195811061
1963,83.64661051824086
1964,83.6543990783711
1965,83.66218763850135
1966,83.66997619863156
1967,83.67776475876181
1968,83.68555331889206
1969,83.6933418790223
1970,83.70113043915255
1971,83.70891899928277
1972,83.71670755941301
1973,83.72449611954326
1974,83.7322846796735
1975,83.74007323980373
1976,83.74786179993397
1977,83.7556503600642
1978,83.76343892019446
1979,83.77122748032471
1980,83.77901604045493
1981,83.78680460058517
1982,83.79459316071541
1983,83.80238172084564
1984,83.81017028097591
1985,83.81795884110613
1986,83.82574740123637
1987,83.83353596136661
1988,83.84132452149686
1989,83.8491130816271
1990,83.85690164175733
1991,83.86469020188756
1992,83.87247876201779
1993,83.88026732214807
1994,83.8880558822783
1995,83.89584444240853
1996,83.90363300253877
1997,83.91142156266902
1998,83.91921012279926
1999,83.9269986829295
2000,83.93478724305973
2001,83.94257580318997
2002,83.95036436332022
2003,83.95815292345046
2004,83.96594148358068
2005,83.97373004371094
2006,83.98151860384117
2007,83.98930716397142
2008,83.99709572410165
2009,84.00488428423189
2010,84.01267284436213
2011,84.02046140449238
2012,84.02824996462262
2013,84.03603852475284
2014,84.04382708488309
2015,84.05161564501333
2016,84.05940420514357
2017,84.06719276527382
2018,84.07498132540404
2019,84.08276988553429
2020,84.09055844566453
2021,84.09834700579476
2022,84.10613556592502
2023,84.11392412605525
2024,84.12171268618549
2025,84.12950124631574
2026,84.13728980644595
2027,84.1450783665762
2028,84.15286692670645
2029,84.16065548683669
2030,84.16844404696694
2031,84.17623260709719
2032,84.1840211672274
2033,84.19180972735765
2034,84.19959828748789
2035,84.20738684761812
2036,84.21517540774838
2037,84.22296396787861
2038,84.23075252800884
2039,84.2385410881391
2040,84.24632964826931
2041,84.25411820839956
2042,84.26190676852981
2043,84.26969532866005
2044,84.27748388879029
2045,84.28527244892052
2046,84.29306100905077
2047,84.30084956918101
2048,84.30863812931125
2049,84.31642668944149
2050,84.32421524957171
2051,84.33200380970197
2052,84.3397923698322
2053,84.34758092996245
2054,84.35536949009268
2055,84.36315805022292
2056,84.37094661035317
2057,84.37873517048341
2058,84.38652373061366
2059,84.39431229074387
2060,84.40210085087413
2061,84.40988941100437
2062,84.41767797113461
2063,84.42546653126485
2064,84.43325509139508
2065,84.44104365152532
2066,84.44883221165556
2067,84.45662077178581
2068,84.46440933191604
2069,84.47219789204628
2070,84.47998645217652
2071,84.48777501230677
2072,84.495563572437
2073,84.50335213256723
2074,84.51114069269748
2075,84.51892925282772
2076,84.52671781295797
2077,84.5345063730882
2078,84.54229493321844
2079,84.55008349334868
2080,84.55787205347892
2081,84.56566061360917
2082,84.5734491737394
2083,84.58123773386964
2084,84.58902629399988
2085,84.59681485413013
2086,84.60460341426038
2087,84.61239197439059
2088,84.62018053452084
2089,84.62796909465108
2090,84.63575765478132
2091,84.64354621491157
2092,84.6513347750418
2093,84.65912333517204
2094,84.66691189530228
2095,84.67470045543251
2096,84.68248901556277
2097,84.690277575693
2098,84.69806613582323
2099,84.70585469595348
2100,84.71364325608371
2101,84.72143181621395
2102,84.7292203763442
2103,84.73700893647444
2104,84.74479749660469
2105,84.7525860567349
2106,84.76037461686516
2107,84.76816317699542
2108,84.77595173712564
2109,84.78374029725587
2110,84.79152885738611
2111,84.79931741751635
2112,84.80710597764659
2113,84.81489453777684
2114,84.82268309790706
2115,84.83047165803731
2116,84.83826021816756
2117,84.8460487782978
2118,84.85383733842805
2119,84.86162589855826
2120,84.86941445868851
2121,84.87720301881878
2122,84.884991578949
2123,84.89278013907924
2124,84.90056869920947
2125,84.90835725933971
2126,84.91614581946996
2127,84.9239343796002
2128,84.93172293973043
2129,84.93951149986067
2130,84.94730005999091
2131,84.95508862012116
2132,84.96287718025141
2133,84.97066574038162
2134,84.97845430051187
2135,84.98624286064211
2136,84.99403142077236
2137,85.0018199809026
2138,85.00960854103283
2139,85.01739710116307
2140,85.02518566129329
2141,85.03297422142356
2142,85.0407627815538
2143,85.04855134168403
2144,85.05633990181427
2145,85.0641284619445
2146,85.07191702207477
2147,85.079705582205
2148,85.08749414233523
2149,85.09528270246547
2150,85.1030712625957
2151,85.11085982272596
2152,85.11864838285621
2153,85.12643694298644
2154,85.13422550311668
2155,85.1420140632469
2156,85.14980262337716
2157,85.15759118350739
2158,85.16537974363763
2159,85.17316830376787
2160,85.18095686389809
2161,85.18874542402834
2162,85.19653398415859
2163,85.20432254428883
2164,85.21211110441907
2165,85.21989966454929
2166,85.22768822467954
2167,85.2354767848098
2168,85.24326534494003
2169,85.25105390507026
2170,85.2588424652005
2171,85.26663102533075
2172,85.27441958546099
2173,85.28220814559123
2174,85.28999670572145
2175,85.2977852658517
2176,85.30557382598195
2177,85.31336238611219
2178,85.32115094624244
2179,85.32893950637265
2180,85.3367280665029
2181,85.34451662663315
2182,85.35230518676339
2183,85.36009374689363
2184,85.36788230702386
2185,85.3756708671541
2186,85.38345942728435
2187,85.3912479874146
2188,85.39903654754481
2189,85.40682510767506
2190,85.4146136678053
2191,85.42240222793555
2192,85.4301907880658
2193,85.43797934819602
2194,85.44576790832626
2195,85.4535564684565
2196,85.46134502858675
2197,85.46913358871699
2198,85.47692214884722
2199,85.48471070897747
2200,85.49249926910771
2201,85.50028782923796
2202,85.50807638936818
2203,85.51586494949842
2204,85.52365350962867
2205,85.5314420697589
2206,85.53923062988916
2207,85.54701919001938
2208,85.55480775014962
2209,85.56259631027987
2210,85.5703848704101
2211,85.57817343054035
2212,85.58596199067058
2213,85.5937505508008
2214,85.60153911093106
2215,85.6093276710613
2216,85.61711623119155
2217,85.62490479132178
2218,85.63269335145202
2219,85.64048191158227
2220,85.64827047171251
2221,85.65605903184273
2222,85.66384759197298
2223,85.67163615210322
2224,85.67942471223347
2225,85.6872132723637
2226,85.69500183249393
2227,85.70279039262418
2228,85.71057895275442
2229,85.71836751288467
2230,85.7261560730149
2231,85.73394463314514
2232,85.74173319327538
2233,85.74952175340563
2234,85.75731031353587
2235,85.76509887366609
2236,85.77288743379634
2237,85.78067599392658
2238,85.78846455405682
2239,85.79625311418705
2240,85.80404167431729
2241,85.81183023444754
2242,85.81961879457778
2243,85.82740735470801
2244,85.83519591483827
2245,85.8429844749685
2246,85.85077303509874
2247,85.85856159522899
2248,85.8663501553592
2249,85.87413871548948
2250,85.8819272756197
2251,85.88971583574994
2252,85.89750439588019
2253,85.9052929560104
2254,85.91308151614065
2255,85.9208700762709
2256,85.92865863640114
2257,85.93644719653138
2258,85.94423575666161
2259,85.95202431679186
2260,85.95981287692209
2261,85.96760143705235
2262,85.97538999718256
2263,85.98317855731281
2264,85.99096711744306
2265,85.9987556775733
2266,86.00654423770355
2267,86.01433279783377
2268,86.02212135796402
2269,86.02990991809428
2270,86.03769847822451
2271,86.04548703835474
2272,86.05327559848497
2273,86.06106415861521
2274,86.06885271874546
2275,86.0766412788757
2276,86.08442983900594
2277,86.09221839913619
2278,86.10000695926641
2279,86.10779551939665
2280,86.1155840795269
2281,86.12337263965712
2282,86.13116119978737
2283,86.13894975991761
2284,86.14673832004786
2285,86.15452688017808
2286,86.16231544030832
2287,86.17010400043856
2288,86.17789256056881
2289,86.18568112069906
2290,86.1934696808293
2291,86.20125824095953
2292,86.20904680108977
2293,86.21683536121999
2294,86.22462392135027
2295,86.23241248148051
2296,86.24020104161073
2297,86.24798960174097
2298,86.2557781618712
2299,86.26356672200146
2300,86.27135528213171
2301,86.27914384226194
2302,86.28693240239218
2303,86.2947209625224
2304,86.30250952265267
2305,86.3102980827829
2306,86.31808664291313
2307,86.32587520304337
2308,86.3336637631736
2309,86.34145232330386
2310,86.34924088343409
2311,86.35702944356431
2312,86.36481800369455
2313,86.3726065638248
2314,86.38039512395504
2315,86.38818368408529
2316,86.39597224421553
2317,86.40376080434577
2318,86.41154936447599
2319,86.41933792460625
2320,86.42712648473648
2321,86.43491504486673
2322,86.44270360499695
2323,86.4504921651272
2324,86.45828072525745
2325,86.46606928538769
2326,86.47385784551794
2327,86.48164640564815
2328,86.48943496577841
2329,86.49722352590867
2330,86.50501208603889
2331,86.51280064616913
2332,86.52058920629936
2333,86.5283777664296
2334,86.53616632655985
2335,86.5439548866901
2336,86.55174344682031
2337,86.55953200695058
2338,86.5673205670808
2339,86.57510912721105
2340,86.58289768734129
2341,86.59068624747152
2342,86.59847480760176
2343,86.60626336773198
2344,86.61405192786225
2345,86.62184048799247
2346,86.62962904812271
2347,86.63741760825295
2348,86.6452061683832
2349,86.65299472851345
2350,86.66078328864369
2351,86.66857184877392
2352,86.67636040890415
2353,86.68414896903441
2354,86.69193752916466
2355,86.69972608929487
2356,86.70751464942512
2357,86.71530320955536
2358,86.7230917696856
2359,86.73088032981585
2360,86.73866888994608
2361,86.7464574500763
2362,86.75424601020657
2363,86.7620345703368
2364,86.76982313046705
2365,86.77761169059728
2366,86.78540025072752
2367,86.79318881085777
2368,86.80097737098801
2369,86.80876593111824
2370,86.8165544912485
2371,86.82434305137873
2372,86.83213161150896
2373,86.83992017163919
2374,86.84770873176943
2375,86.85549729189968
2376,86.86328585202992
2377,86.87107441216016
2378,86.87886297229038
2379,86.88665153242063
2380,86.89444009255087
2381,86.90222865268112
2382,86.91001721281134
2383,86.91780577294159
2384,86.92559433307184
2385,86.93338289320208
2386,86.94117145333232
2387,86.94896001346257
2388,86.95674857359279
2389,86.96453713372306
2390,86.97232569385328
2391,86.98011425398352
2392,86.98790281411377
2393,86.99569137424399
2394,87.00347993437424
2395,87.01126849450449
2396,87.0190570546347
2397,87.02684561476498
2398,87.03463417489519
2399,87.04242273502544
2400,87.05021129515569
2401,87.05799985528591
2402,87.06578841541616
2403,87.0735769755464
2404,87.08136553567664
2405,87.08915409580686
2406,87.09694265593711
2407,87.10473121606735
2408,87.11251977619759
2409,87.12030833632784
2410,87.12809689645808
2411,87.13588545658831
2412,87.14367401671856
2413,87.15146257684879
2414,87.15925113697905
2415,87.16703969710926
2416,87.17482825723951
2417,87.18261681736976
2418,87.1904053775
2419,87.19819393763024
2420,87.20598249776047
2421,87.2137710578907
2422,87.22155961802095
2423,87.22934817815121
2424,87.23713673828144
2425,87.24492529841167
2426,87.25271385854191
2427,87.26050241867216
2428,87.26829097880241
2429,87.27607953893263
2430,87.28386809906289
2431,87.29165665919311
2432,87.29944521932337
2433,87.3072337794536
2434,87.31502233958383
2435,87.32281089971407
2436,87.33059945984431
2437,87.33838801997456
2438,87.3461765801048
2439,87.35396514023502
2440,87.36175370036526
2441,87.36954226049549
2442,87.37733082062576
2443,87.385119380756
2444,87.39290794088623
2445,87.40069650101647
2446,87.40848506114669
2447,87.41627362127696
2448,87.42406218140721
2449,87.43185074153743
2450,87.43963930166767
2451,87.4474278617979
2452,87.45521642192816
2453,87.46300498205841
2454,87.47079354218863
2455,87.47858210231888
2456,87.48637066244909
2457,87.49415922257937
2458,87.50194778270959
2459,87.50973634283983
2460,87.51752490297007
2461,87.5253134631003
2462,87.53310202323055
2463,87.5408905833608
2464,87.54867914349104
2465,87.55646770362128
2466,87.5642562637515
2467,87.57204482388174
2468,87.57983338401199
2469,87.58762194414223
2470,87.59541050427246
2471,87.60319906440269
2472,87.61098762453295
2473,87.61877618466318
2474,87.62656474479343
2475,87.63435330492365
2476,87.6421418650539
2477,87.64993042518415
2478,87.65771898531439
2479,87.66550754544463
2480,87.67329610557485
2481,87.68108466570509
2482,87.68887322583534
2483,87.69666178596559
2484,87.70445034609583
2485,87.71223890622606
2486,87.7200274663563
2487,87.72781602648655
2488,87.7356045866168
2489,87.74339314674701
2490,87.75118170687728
2491,87.7589702670075
2492,87.76675882713775
2493,87.77454738726799
2494,87.78233594739822
2495,87.79012450752846
2496,87.79791306765871
2497,87.80570162778895
2498,87.81349018791917
2499,87.82127874804944
2500,87.82906730817966
2501,87.8368558683099
2502,87.84464442844015
2503,87.85243298857037
2504,87.86022154870062
2505,87.86801010883086
2506,87.87579866896108
2507,87.88358722909133
2508,87.89137578922157
2509,87.8991643493518
2510,87.90695290948206
2511,87.9147414696123
2512,87.92253002974255
2513,87.93031858987278
2514,87.93810715000302
2515,87.94589571013327
2516,87.9536842702635
2517,87.96147283039376
2518,87.96926139052398
2519,87.97704995065422
2520,87.98483851078446
2521,87.99262707091471
2522,88.00041563104494
2523,88.0082041911752
2524,88.01599275130543
2525,88.02378131143566
2526,88.03156987156589
2527,88.03935843169614
2528,88.04714699182638
2529,88.05493555195663
2530,88.06272411208685
2531,88.0705126722171
2532,88.07830123234734
2533,88.08608979247757
2534,88.0938783526078
2535,88.10166691273805
2536,88.10945547286829
2537,88.11724403299854
2538,88.12503259312878
2539,88.13282115325902
2540,88.14060971338924
2541,88.14839827351948
2542,88.15618683364973
2543,88.16397539377998
2544,88.17176395391022
2545,88.17955251404045
2546,88.18734107417069
2547,88.19512963430094
2548,88.20291819443119
2549,88.2107067545614
2550,88.21849531469165
2551,88.22628387482189
2552,88.23407243495214
2553,88.24186099508238
2554,88.24964955521261
2555,88.25743811534285
2556,88.2652266754731
2557,88.27301523560335
2558,88.28080379573359
2559,88.28859235586381
2560,88.29638091599405
2561,88.3041694761243
2562,88.31195803625454
2563,88.31974659638477
2564,88.32753515651501
2565,88.33532371664523
2566,88.3431122767755
2567,88.35090083690572
2568,88.35868939703596
2569,88.3664779571662
2570,88.37426651729645
2571,88.38205507742668
2572,88.38984363755694
2573,88.39763219768717
2574,88.4054207578174
2575,88.41320931794766
2576,88.42099787807787
2577,88.42878643820814
2578,88.43657499833837
2579,88.44436355846861
2580,88.45215211859886
2581,88.45994067872908
2582,88.46772923885933
2583,88.47551779898956
2584,88.48330635911982
2585,88.49109491925007
2586,88.49888347938028
2587,88.50667203951053
2588,88.51446059964077
2589,88.52224915977102
2590,88.53003771990126
2591,88.5378262800315
2592,88.54561484016175
2593,88.55340340029198
2594,88.5611919604222
2595,88.56898052055244
2596,88.57676908068268
2597,88.58455764081293
2598,88.59234620094317
2599,88.60013476107339
2600,88.60792332120366
2601,88.61571188133391
2602,88.62350044146412
2603,88.63128900159437
2604,88.63907756172459
2605,88.64686612185486
2606,88.6546546819851
2607,88.66244324211533
2608,88.67023180224555
2609,88.67802036237579
2610,88.68580892250607
2611,88.69359748263629
2612,88.70138604276653
2613,88.70917460289677
2614,88.716963163027
2615,88.72475172315725
2616,88.73254028328749
2617,88.74032884341774
2618,88.74811740354798
2619,88.7559059636782
2620,88.76369452380845
2621,88.77148308393869
2622,88.77927164406894
