,Regression
0,52.94387219993439
1,52.976483881652634
2,53.009095563370856
3,53.04170724508909
4,53.07431892680733
5,53.10693060852557
6,53.139542290243796
7,53.17215397196203
8,53.204765653680276
9,53.237377335398506
10,53.26998901711675
11,53.30260069883497
12,53.33521238055321
13,53.36782406227145
14,53.400435743989675
15,53.43304742570792
16,53.46565910742615
17,53.49827078914439
18,53.530882470862615
19,53.56349415258086
20,53.596105834299095
21,53.62871751601733
22,53.66132919773557
23,53.69394087945379
24,53.726552561172035
25,53.75916424289025
26,53.791775924608494
27,53.824387606326745
28,53.856999288044975
29,53.889610969763204
30,53.92222265148144
31,53.954834333199685
32,53.987446014917914
33,54.020057696636144
34,54.05266937835439
35,54.08528106007261
36,54.11789274179085
37,54.15050442350909
38,54.18311610522732
39,54.215727786945564
40,54.24833946866379
41,54.28095115038203
42,54.31356283210026
43,54.346174513818504
44,54.378786195536726
45,54.41139787725497
46,54.44400955897321
47,54.476621240691436
48,54.509232922409666
49,54.5418446041279
50,54.574456285846146
51,54.60706796756438
52,54.639679649282606
53,54.67229133100085
54,54.7049030127191
55,54.73751469443732
56,54.770126376155545
57,54.802738057873796
58,54.835349739592026
59,54.867961421310255
60,54.900573103028485
61,54.93318478474672
62,54.965796466464965
63,54.9984081481832
64,55.03101982990143
65,55.063631511619676
66,55.096243193337905
67,55.12885487505614
68,55.16146655677437
69,55.194078238492615
70,55.226689920210845
71,55.25930160192908
72,55.29191328364732
73,55.32452496536554
74,55.35713664708378
75,55.38974832880202
76,55.42236001052026
77,55.454971692238495
78,55.48758337395672
79,55.52019505567496
80,55.552806737393205
81,55.585418419111434
82,55.61803010082966
83,55.6506417825479
84,55.68325346426614
85,55.71586514598437
86,55.748476827702596
87,55.78108850942084
88,55.81370019113908
89,55.846311872857314
90,55.87892355457555
91,55.91153523629378
92,55.94414691801203
93,55.97675859973025
94,56.00937028144849
95,56.04198196316673
96,56.074593644884956
97,56.107205326603186
98,56.13981700832143
99,56.17242869003967
100,56.205040371757896
101,56.23765205347613
102,56.27026373519437
103,56.30287541691261
104,56.33548709863085
105,56.36809878034907
106,56.40071046206731
107,56.433322143785546
108,56.465933825503775
109,56.498545507222005
110,56.53115718894025
111,56.56376887065849
112,56.59638055237672
113,56.62899223409495
114,56.66160391581319
115,56.69421559753143
116,56.72682727924966
117,56.75943896096789
118,56.79205064268613
119,56.824662324404365
120,56.8572740061226
121,56.889885687840824
122,56.92249736955907
123,56.9551090512773
124,56.98772073299554
125,57.020332414713785
126,57.05294409643201
127,57.085555778150244
128,57.11816745986848
129,57.150779141586725
130,57.18339082330495
131,57.216002505023184
132,57.24861418674142
133,57.28122586845966
134,57.31383755017789
135,57.346449231896116
136,57.37906091361436
137,57.411672595332604
138,57.444284277050826
139,57.47689595876906
140,57.5095076404873
141,57.542119322205544
142,57.574731003923766
143,57.607342685642
144,57.63995436736024
145,57.672566049078476
146,57.705177730796706
147,57.737789412514935
148,57.77040109423318
149,57.80301277595142
150,57.83562445766965
151,57.868236139387896
152,57.90084782110612
153,57.93345950282436
154,57.96607118454259
155,57.99868286626082
156,58.03129454797906
157,58.063906229697295
158,58.09651791141553
159,58.129129593133776
160,58.161741274852005
161,58.19435295657024
162,58.22696463828847
163,58.259576320006715
164,58.29218800172495
165,58.32479968344318
166,58.35741136516141
167,58.39002304687964
168,58.42263472859789
169,58.455246410316114
170,58.48785809203435
171,58.520469773752595
172,58.55308145547082
173,58.58569313718906
174,58.61830481890729
175,58.650916500625534
176,58.68352818234376
177,58.716139864062
178,58.74875154578024
179,58.78136322749847
180,58.8139749092167
181,58.84658659093493
182,58.87919827265318
183,58.91180995437141
184,58.944421636089636
185,58.97703331780789
186,59.00964499952612
187,59.04225668124435
188,59.07486836296258
189,59.10748004468083
190,59.140091726399056
191,59.172703408117286
192,59.20531508983552
193,59.23792677155375
194,59.270538453271996
195,59.303150134990226
196,59.33576181670846
197,59.368373498426706
198,59.40098518014494
199,59.43359686186317
200,59.4662085435814
201,59.498820225299646
202,59.53143190701788
203,59.564043588736105
204,59.59665527045435
205,59.62926695217258
206,59.66187863389082
207,59.694490315609045
208,59.72710199732729
209,59.759713679045525
210,59.79232536076376
211,59.82493704248199
212,59.85754872420023
213,59.890160405918465
214,59.92277208763669
215,59.955383769354924
216,59.98799545107317
217,60.020607132791405
218,60.05321881450963
219,60.085830496227864
220,60.11844217794611
221,60.151053859664344
222,60.18366554138258
223,60.21627722310082
224,60.24888890481905
225,60.281500586537284
226,60.31411226825552
227,60.34672394997374
228,60.37933563169199
229,60.41194731341022
230,60.44455899512846
231,60.477170676846704
232,60.50978235856493
233,60.542394040283156
234,60.5750057220014
235,60.60761740371964
236,60.64022908543786
237,60.6728407671561
238,60.70545244887434
239,60.738064130592576
240,60.77067581231081
241,60.803287494029036
242,60.83589917574728
243,60.86851085746552
244,60.90112253918375
245,60.933734220901975
246,60.96634590262022
247,60.99895758433846
248,61.03156926605669
249,61.06418094777492
250,61.09679262949316
251,61.129404311211395
252,61.16201599292963
253,61.194627674647855
254,61.2272393563661
255,61.25985103808434
256,61.29246271980257
257,61.325074401520816
258,61.35768608323904
259,61.39029776495728
260,61.42290944667551
261,61.45552112839375
262,61.48813281011198
263,61.520744491830214
264,61.55335617354845
265,61.58596785526669
266,61.61857953698493
267,61.65119121870315
268,61.68380290042139
269,61.716414582139635
270,61.74902626385786
271,61.78163794557611
272,61.81424962729433
273,61.84686130901257
274,61.879472990730804
275,61.91208467244903
276,61.94469635416727
277,61.97730803588551
278,62.00991971760374
279,62.042531399321966
280,62.07514308104021
281,62.107754762758454
282,62.14036644447668
283,62.17297812619493
284,62.205589807913164
285,62.238201489631386
286,62.27081317134962
287,62.30342485306785
288,62.33603653478609
289,62.368648216504326
290,62.40125989822256
291,62.4338715799408
292,62.46648326165904
293,62.49909494337727
294,62.5317066250955
295,62.564318306813746
296,62.59692998853198
297,62.62954167025021
298,62.66215335196844
299,62.69476503368668
300,62.72737671540492
301,62.759988397123145
302,62.79260007884138
303,62.82521176055962
304,62.85782344227786
305,62.8904351239961
306,62.92304680571432
307,62.955658487432565
308,62.9882701691508
309,63.02088185086904
310,63.05349353258727
311,63.0861052143055
312,63.118716896023734
313,63.151328577741964
314,63.1839402594602
315,63.21655194117844
316,63.249163622896674
317,63.281775304614904
318,63.31438698633315
319,63.346998668051384
320,63.37961034976962
321,63.41222203148786
322,63.444833713206094
323,63.47744539492432
324,63.51005707664255
325,63.54266875836078
326,63.575280440079034
327,63.607892121797256
328,63.64050380351549
329,63.67311548523373
330,63.705727166951974
331,63.7383388486702
332,63.77095053038843
333,63.80356221210668
334,63.8361738938249
335,63.868785575543136
336,63.90139725726138
337,63.93400893897961
338,63.96662062069785
339,63.999232302416075
340,64.03184398413431
341,64.06445566585255
342,64.09706734757079
343,64.12967902928902
344,64.16229071100726
345,64.1949023927255
346,64.22751407444373
347,64.26012575616195
348,64.29273743788019
349,64.32534911959843
350,64.35796080131665
351,64.3905724830349
352,64.42318416475314
353,64.45579584647136
354,64.48840752818961
355,64.52101920990786
356,64.55363089162609
357,64.58624257334432
358,64.61885425506254
359,64.65146593678078
360,64.68407761849902
361,64.71668930021724
362,64.74930098193549
363,64.78191266365373
364,64.81452434537196
365,64.84713602709019
366,64.87974770880842
367,64.91235939052666
368,64.9449710722449
369,64.97758275396313
370,65.01019443568137
371,65.04280611739959
372,65.07541779911784
373,65.10802948083608
374,65.14064116255432
375,65.17325284427254
376,65.20586452599078
377,65.23847620770901
378,65.27108788942725
379,65.3036995711455
380,65.33631125286372
381,65.36892293458196
382,65.40153461630018
383,65.43414629801842
384,65.46675797973666
385,65.49936966145489
386,65.53198134317313
387,65.56459302489137
388,65.5972047066096
389,65.62981638832785
390,65.66242807004608
391,65.69503975176431
392,65.72765143348254
393,65.76026311520077
394,65.79287479691901
395,65.82548647863725
396,65.85809816035547
397,65.89070984207372
398,65.92332152379196
399,65.95593320551019
400,65.9885448872284
401,66.02115656894665
402,66.05376825066489
403,66.08637993238312
404,66.11899161410136
405,66.1516032958196
406,66.18421497753783
407,66.21682665925607
408,66.24943834097431
409,66.28205002269253
410,66.31466170441077
411,66.347273386129
412,66.37988506784724
413,66.41249674956548
414,66.44510843128371
415,66.47772011300195
416,66.51033179472019
417,66.54294347643841
418,66.57555515815665
419,66.60816683987488
420,66.64077852159312
421,66.67339020331136
422,66.70600188502961
423,66.73861356674783
424,66.77122524846607
425,66.8038369301843
426,66.83644861190254
427,66.86906029362076
428,66.901671975339
429,66.93428365705724
430,66.96689533877547
431,66.99950702049371
432,67.03211870221195
433,67.06473038393018
434,67.09734206564842
435,67.12995374736664
436,67.16256542908488
437,67.19517711080312
438,67.22778879252135
439,67.2604004742396
440,67.29301215595783
441,67.32562383767606
442,67.3582355193943
443,67.39084720111254
444,67.42345888283077
445,67.456070564549
446,67.48868224626722
447,67.52129392798547
448,67.5539056097037
449,67.58651729142194
450,67.61912897314018
451,67.65174065485841
452,67.68435233657665
453,67.71696401829487
454,67.74957570001311
455,67.78218738173135
456,67.81479906344957
457,67.84741074516782
458,67.88002242688606
459,67.9126341086043
460,67.94524579032253
461,67.97785747204078
462,68.010469153759
463,68.04308083547723
464,68.07569251719546
465,68.10830419891371
466,68.14091588063194
467,68.17352756235017
468,68.20613924406841
469,68.23875092578665
470,68.27136260750487
471,68.30397428922309
472,68.33658597094134
473,68.36919765265958
474,68.40180933437782
475,68.43442101609605
476,68.46703269781429
477,68.49964437953253
478,68.53225606125075
479,68.564867742969
480,68.59747942468722
481,68.63009110640546
482,68.66270278812371
483,68.69531446984193
484,68.72792615156017
485,68.76053783327839
486,68.79314951499664
487,68.82576119671488
488,68.8583728784331
489,68.89098456015135
490,68.92359624186957
491,68.95620792358781
492,68.98881960530605
493,69.02143128702428
494,69.05404296874252
495,69.08665465046076
496,69.11926633217901
497,69.15187801389723
498,69.18448969561545
499,69.21710137733369
500,69.24971305905193
501,69.28232474077016
502,69.31493642248839
503,69.34754810420664
504,69.38015978592486
505,69.4127714676431
506,69.44538314936132
507,69.47799483107957
508,69.51060651279779
509,69.54321819451604
510,69.57582987623428
511,69.60844155795253
512,69.64105323967075
513,69.67366492138899
514,69.70627660310723
515,69.73888828482546
516,69.77149996654369
517,69.80411164826192
518,69.83672332998016
519,69.8693350116984
520,69.90194669341663
521,69.93455837513487
522,69.96717005685309
523,69.99978173857133
524,70.03239342028958
525,70.0650051020078
526,70.09761678372604
527,70.13022846544428
528,70.1628401471625
529,70.19545182888075
530,70.228063510599
531,70.26067519231722
532,70.29328687403546
533,70.32589855575368
534,70.35851023747192
535,70.39112191919016
536,70.42373360090839
537,70.45634528262663
538,70.48895696434488
539,70.52156864606309
540,70.55418032778131
541,70.58679200949956
542,70.6194036912178
543,70.65201537293603
544,70.68462705465427
545,70.71723873637252
546,70.74985041809073
547,70.782462099809
548,70.81507378152722
549,70.84768546324545
550,70.88029714496368
551,70.91290882668191
552,70.94552050840015
553,70.97813219011839
554,71.01074387183662
555,71.04335555355486
556,71.0759672352731
557,71.10857891699133
558,71.14119059870957
559,71.1738022804278
560,71.20641396214603
561,71.23902564386427
562,71.2716373255825
563,71.30424900730073
564,71.33686068901899
565,71.3694723707372
566,71.40208405245545
567,71.43469573417369
568,71.46730741589192
569,71.49991909761016
570,71.53253077932837
571,71.56514246104663
572,71.59775414276487
573,71.63036582448309
574,71.66297750620133
575,71.69558918791955
576,71.72820086963779
577,71.76081255135603
578,71.79342423307426
579,71.8260359147925
580,71.85864759651074
581,71.89125927822897
582,71.92387095994721
583,71.95648264166545
584,71.98909432338368
585,72.02170600510192
586,72.05431768682014
587,72.08692936853838
588,72.1195410502566
589,72.15215273197484
590,72.18476441369309
591,72.21737609541131
592,72.24998777712956
593,72.28259945884778
594,72.31521114056602
595,72.34782282228427
596,72.38043450400251
597,72.41304618572073
598,72.44565786743897
599,72.4782695491572
600,72.51088123087544
601,72.54349291259369
602,72.5761045943119
603,72.60871627603017
604,72.64132795774837
605,72.67393963946661
606,72.70655132118485
607,72.73916300290308
608,72.77177468462132
609,72.80438636633956
610,72.83699804805778
611,72.86960972977602
612,72.90222141149424
613,72.93483309321248
614,72.96744477493074
615,73.00005645664895
616,73.0326681383672
617,73.06527982008544
618,73.09789150180367
619,73.13050318352191
620,73.16311486524016
621,73.19572654695838
622,73.22833822867659
623,73.26094991039484
624,73.29356159211308
625,73.32617327383132
626,73.35878495554955
627,73.3913966372678
628,73.42400831898601
629,73.45662000070425
630,73.48923168242248
631,73.52184336414072
632,73.55445504585896
633,73.5870667275772
634,73.61967840929543
635,73.65229009101367
636,73.6849017727319
637,73.71751345445014
638,73.75012513616838
639,73.78273681788659
640,73.81534849960485
641,73.84796018132306
642,73.88057186304131
643,73.91318354475955
644,73.94579522647778
645,73.978406908196
646,74.01101858991423
647,74.04363027163248
648,74.07624195335072
649,74.10885363506895
650,74.14146531678719
651,74.17407699850544
652,74.20668868022365
653,74.23930036194191
654,74.27191204366015
655,74.30452372537837
656,74.3371354070966
657,74.36974708881483
658,74.40235877053307
659,74.4349704522513
660,74.46758213396954
661,74.50019381568778
662,74.53280549740602
663,74.56541717912422
664,74.59802886084249
665,74.6306405425607
666,74.66325222427895
667,74.69586390599719
668,74.72847558771542
669,74.76108726943366
670,74.79369895115191
671,74.82631063287012
672,74.85892231458837
673,74.89153399630659
674,74.92414567802483
675,74.95675735974307
676,74.9893690414613
677,75.02198072317955
678,75.05459240489779
679,75.08720408661603
680,75.11981576833425
681,75.15242745005247
682,75.18503913177071
683,75.21765081348894
684,75.25026249520718
685,75.28287417692542
686,75.31548585864365
687,75.34809754036189
688,75.38070922208013
689,75.41332090379836
690,75.4459325855166
691,75.47854426723484
692,75.51115594895306
693,75.5437676306713
694,75.57637931238953
695,75.60899099410776
696,75.64160267582602
697,75.67421435754423
698,75.70682603926247
699,75.7394377209807
700,75.77204940269894
701,75.80466108441719
702,75.83727276613541
703,75.86988444785366
704,75.90249612957189
705,75.93510781129012
706,75.96771949300836
707,76.0003311747266
708,76.03294285644482
709,76.06555453816306
710,76.09816621988129
711,76.13077790159953
712,76.16338958331777
713,76.196001265036
714,76.22861294675424
715,76.26122462847248
716,76.29383631019071
717,76.32644799190894
718,76.35905967362717
719,76.39167135534541
720,76.42428303706366
721,76.45689471878187
722,76.48950640050012
723,76.52211808221836
724,76.55472976393659
725,76.58734144565483
726,76.61995312737307
727,76.6525648090913
728,76.68517649080951
729,76.71778817252776
730,76.750399854246
731,76.78301153596423
732,76.81562321768247
733,76.84823489940071
734,76.88084658111893
735,76.91345826283717
736,76.9460699445554
737,76.97868162627364
738,77.01129330799188
739,77.04390498971011
740,77.07651667142835
741,77.10912835314659
742,77.14174003486481
743,77.17435171658306
744,77.20696339830128
745,77.2395750800195
746,77.27218676173777
747,77.30479844345601
748,77.33741012517423
749,77.37002180689247
750,77.4026334886107
751,77.43524517032894
752,77.46785685204716
753,77.5004685337654
754,77.53308021548364
755,77.56569189720187
756,77.59830357892011
757,77.63091526063835
758,77.66352694235658
759,77.6961386240748
760,77.72875030579307
761,77.76136198751131
762,77.79397366922952
763,77.82658535094775
764,77.85919703266599
765,77.89180871438423
766,77.92442039610246
767,77.9570320778207
768,77.98964375953892
769,78.02225544125716
770,78.05486712297541
771,78.08747880469362
772,78.12009048641188
773,78.15270216813009
774,78.18531384984834
775,78.21792553156658
776,78.25053721328482
777,78.28314889500304
778,78.3157605767213
779,78.34837225843951
780,78.38098394015775
781,78.41359562187598
782,78.44620730359422
783,78.47881898531246
784,78.51143066703071
785,78.54404234874895
786,78.57665403046715
787,78.60926571218539
788,78.64187739390363
789,78.67448907562186
790,78.7071007573401
791,78.73971243905834
792,78.77232412077656
793,78.80493580249481
794,78.83754748421305
795,78.87015916593128
796,78.90277084764952
797,78.93538252936773
798,78.967994211086
799,79.00060589280422
800,79.03321757452245
801,79.06582925624069
802,79.09844093795894
803,79.13105261967715
804,79.16366430139539
805,79.19627598311362
806,79.22888766483186
807,79.2614993465501
808,79.29411102826833
809,79.32672270998657
810,79.35933439170479
811,79.39194607342304
812,79.42455775514128
813,79.45716943685952
814,79.48978111857775
815,79.52239280029599
816,79.55500448201421
817,79.58761616373245
818,79.62022784545069
819,79.65283952716892
820,79.68545120888716
821,79.71806289060537
822,79.75067457232363
823,79.78328625404184
824,79.81589793576009
825,79.84850961747833
826,79.88112129919656
827,79.91373298091479
828,79.94634466263305
829,79.97895634435126
830,80.01156802606951
831,80.04417970778775
832,80.07679138950597
833,80.10940307122421
834,80.14201475294244
835,80.1746264346607
836,80.20723811637892
837,80.23984979809715
838,80.27246147981539
839,80.30507316153361
840,80.33768484325185
841,80.37029652497009
842,80.40290820668831
843,80.43551988840656
844,80.4681315701248
845,80.50074325184303
846,80.53335493356127
847,80.5659666152795
848,80.59857829699774
849,80.63118997871598
850,80.6638016604342
851,80.69641334215244
852,80.72902502387069
853,80.7616367055889
854,80.79424838730716
855,80.82686006902539
856,80.85947175074361
857,80.89208343246185
858,80.92469511418008
859,80.95730679589832
860,80.98991847761656
861,81.02253015933479
862,81.05514184105303
863,81.08775352277127
864,81.1203652044895
865,81.15297688620774
866,81.18558856792599
867,81.2182002496442
868,81.25081193136243
869,81.28342361308067
870,81.31603529479891
871,81.34864697651714
872,81.38125865823538
873,81.41387033995362
874,81.44648202167186
875,81.47909370339008
876,81.51170538510831
877,81.54431706682655
878,81.5769287485448
879,81.60954043026301
880,81.64215211198126
881,81.6747637936995
882,81.70737547541773
883,81.73998715713597
884,81.7725988388542
885,81.80521052057243
886,81.83782220229067
887,81.8704338840089
888,81.90304556572714
889,81.93565724744538
890,81.96826892916361
891,82.00088061088185
892,82.03349229260006
893,82.06610397431831
894,82.09871565603655
895,82.13132733775478
896,82.16393901947302
897,82.19655070119126
898,82.2291623829095
899,82.26177406462773
900,82.29438574634597
901,82.3269974280642
902,82.35960910978244
903,82.39222079150065
904,82.42483247321891
905,82.45744415493715
906,82.49005583665537
907,82.52266751837361
908,82.55527920009185
909,82.58789088181007
910,82.6205025635283
911,82.65311424524654
912,82.68572592696478
913,82.71833760868302
914,82.75094929040125
915,82.78356097211949
916,82.81617265383774
917,82.84878433555595
918,82.8813960172742
919,82.91400769899244
920,82.94661938071066
921,82.97923106242891
922,83.01184274414713
923,83.04445442586537
924,83.07706610758359
925,83.10967778930184
926,83.14228947102008
927,83.1749011527383
928,83.20751283445655
929,83.24012451617476
930,83.27273619789302
931,83.30534787961125
932,83.33795956132948
933,83.37057124304772
934,83.40318292476594
935,83.43579460648421
936,83.46840628820244
937,83.50101796992067
938,83.53362965163889
939,83.56624133335713
940,83.59885301507536
941,83.6314646967936
942,83.66407637851185
943,83.69668806023006
944,83.7292997419483
945,83.76191142366653
946,83.79452310538477
947,83.827134787103
948,83.85974646882123
949,83.89235815053948
950,83.92496983225772
951,83.95758151397595
952,83.99019319569419
953,84.02280487741244
954,84.05541655913066
955,84.0880282408489
956,84.12063992256714
957,84.15325160428536
958,84.1858632860036
959,84.21847496772182
960,84.25108664944005
961,84.28369833115829
962,84.31631001287653
963,84.34892169459476
964,84.381533376313
965,84.41414505803124
966,84.44675673974947
967,84.47936842146771
968,84.51198010318595
969,84.54459178490418
970,84.57720346662242
971,84.60981514834066
972,84.64242683005891
973,84.67503851177712
974,84.70765019349534
975,84.74026187521359
976,84.77287355693183
977,84.80548523865006
978,84.8380969203683
979,84.87070860208651
980,84.90332028380477
981,84.93593196552301
982,84.96854364724123
983,85.00115532895947
984,85.0337670106777
985,85.06637869239593
986,85.0989903741142
987,85.13160205583243
988,85.16421373755065
989,85.19682541926889
990,85.22943710098713
991,85.26204878270535
992,85.29466046442359
993,85.32727214614181
994,85.35988382786006
995,85.3924955095783
996,85.42510719129652
997,85.45771887301477
998,85.49033055473298
999,85.52294223645123
1000,85.55555391816947
1001,85.5881655998877
1002,85.62077728160594
1003,85.65338896332419
1004,85.68600064504241
1005,85.71861232676065
1006,85.75122400847889
1007,85.78383569019712
1008,85.81644737191536
1009,85.84905905363358
1010,85.8816707353518
1011,85.91428241707004
1012,85.9468940987883
1013,85.97950578050653
1014,86.01211746222475
1015,86.04472914394299
1016,86.07734082566122
1017,86.10995250737946
1018,86.14256418909771
1019,86.17517587081595
1020,86.20778755253419
1021,86.24039923425241
1022,86.27301091597064
1023,86.30562259768887
1024,86.33823427940712
1025,86.37084596112534
1026,86.40345764284359
1027,86.4360693245618
1028,86.46868100628004
1029,86.5012926879983
1030,86.53390436971651
1031,86.56651605143475
1032,86.59912773315298
1033,86.63173941487122
1034,86.66435109658946
1035,86.69696277830771
1036,86.72957446002594
1037,86.76218614174418
1038,86.7947978234624
1039,86.82740950518064
1040,86.86002118689888
1041,86.89263286861711
1042,86.92524455033535
1043,86.95785623205359
1044,86.99046791377182
1045,87.02307959549006
1046,87.0556912772083
1047,87.08830295892652
1048,87.12091464064476
1049,87.15352632236298
1050,87.18613800408122
1051,87.21874968579945
1052,87.25136136751767
1053,87.28397304923594
1054,87.31658473095415
1055,87.3491964126724
1056,87.38180809439064
1057,87.41441977610887
1058,87.44703145782711
1059,87.47964313954535
1060,87.51225482126358
1061,87.54486650298182
1062,87.57747818470006
1063,87.61008986641829
1064,87.64270154813651
1065,87.67531322985475
1066,87.70792491157297
1067,87.74053659329121
1068,87.77314827500946
1069,87.8057599567277
1070,87.83837163844593
1071,87.87098332016417
1072,87.9035950018824
1073,87.93620668360062
1074,87.96881836531887
1075,88.00143004703709
1076,88.03404172875534
1077,88.06665341047358
1078,88.09926509219181
1079,88.13187677391005
1080,88.16448845562826
1081,88.19710013734651
1082,88.22971181906475
1083,88.26232350078298
1084,88.2949351825012
1085,88.32754686421944
1086,88.3601585459377
1087,88.39277022765593
1088,88.42538190937417
1089,88.45799359109239
1090,88.49060527281063
1091,88.52321695452886
1092,88.5558286362471
1093,88.58844031796534
1094,88.62105199968357
1095,88.65366368140181
1096,88.68627536312005
1097,88.71888704483825
1098,88.75149872655649
1099,88.78411040827473
1100,88.81672208999298
1101,88.8493337717112
1102,88.88194545342944
1103,88.91455713514766
1104,88.9471688168659
1105,88.97978049858416
1106,89.01239218030237
1107,89.04500386202062
1108,89.07761554373886
1109,89.1102272254571
1110,89.14283890717533
1111,89.17545058889357
1112,89.2080622706118
1113,89.24067395233006
1114,89.27328563404829
1115,89.3058973157665
1116,89.33850899748474
1117,89.37112067920297
1118,89.40373236092121
1119,89.43634404263945
1120,89.46895572435768
1121,89.50156740607589
1122,89.53417908779413
1123,89.56679076951237
1124,89.59940245123062
1125,89.63201413294884
1126,89.66462581466709
1127,89.69723749638533
1128,89.72984917810356
1129,89.7624608598218
1130,89.79507254154005
1131,89.82768422325826
1132,89.8602959049765
1133,89.89290758669473
1134,89.92551926841297
1135,89.9581309501312
1136,89.99074263184944
1137,90.02335431356768
1138,90.05596599528592
1139,90.08857767700415
1140,90.12118935872238
1141,90.1538010404406
1142,90.18641272215885
1143,90.21902440387709
1144,90.25163608559532
1145,90.28424776731356
1146,90.3168594490318
1147,90.34947113075005
1148,90.38208281246828
1149,90.41469449418649
1150,90.44730617590471
1151,90.47991785762295
1152,90.5125295393412
1153,90.54514122105944
1154,90.57775290277765
1155,90.61036458449591
1156,90.64297626621412
1157,90.67558794793236
1158,90.7081996296506
1159,90.74081131136884
1160,90.77342299308708
1161,90.80603467480532
1162,90.83864635652357
1163,90.8712580382418
1164,90.90386971996004
1165,90.93648140167825
1166,90.96909308339649
1167,91.00170476511472
1168,91.03431644683296
1169,91.0669281285512
1170,91.09953981026943
1171,91.13215149198768
1172,91.16476317370591
1173,91.19737485542412
1174,91.22998653714235
1175,91.26259821886059
1176,91.29520990057884
1177,91.32782158229708
1178,91.36043326401531
1179,91.39304494573356
1180,91.4256566274518
1181,91.45826830917002
1182,91.49087999088827
1183,91.52349167260651
1184,91.55610335432472
1185,91.58871503604296
1186,91.6213267177612
1187,91.65393839947944
1188,91.68655008119768
1189,91.71916176291587
1190,91.75177344463414
1191,91.78438512635236
1192,91.8169968080706
1193,91.84960848978884
1194,91.88222017150707
1195,91.91483185322531
1196,91.94744353494356
1197,91.98005521666178
1198,92.01266689838002
1199,92.04527858009827
1200,92.07789026181648
1201,92.11050194353471
1202,92.14311362525295
1203,92.1757253069712
1204,92.20833698868942
1205,92.24094867040766
1206,92.27356035212591
1207,92.30617203384413
1208,92.33878371556236
1209,92.3713953972806
1210,92.40400707899884
1211,92.43661876071708
1212,92.4692304424353
1213,92.50184212415354
1214,92.53445380587178
1215,92.56706548759001
1216,92.59967716930824
1217,92.63228885102647
1218,92.66490053274471
1219,92.69751221446295
1220,92.73012389618118
1221,92.76273557789942
1222,92.79534725961766
1223,92.82795894133591
1224,92.86057062305412
1225,92.89318230477235
1226,92.92579398649059
1227,92.95840566820884
1228,92.99101734992706
1229,93.0236290316453
1230,93.05624071336355
1231,93.08885239508177
1232,93.12146407680001
1233,93.15407575851823
1234,93.1866874402365
1235,93.21929912195473
1236,93.25191080367296
1237,93.2845224853912
1238,93.31713416710942
1239,93.34974584882765
1240,93.38235753054589
1241,93.41496921226411
1242,93.44758089398235
1243,93.48019257570057
1244,93.51280425741881
1245,93.54541593913706
1246,93.5780276208553
1247,93.6106393025735
1248,93.64325098429177
1249,93.67586266601
1250,93.70847434772823
1251,93.74108602944649
1252,93.77369771116473
1253,93.80630939288295
1254,93.83892107460122
1255,93.87153275631941
1256,93.90414443803765
1257,93.93675611975588
1258,93.96936780147414
1259,94.00197948319237
1260,94.03459116491058
1261,94.06720284662882
1262,94.09981452834705
1263,94.13242621006529
1264,94.16503789178353
1265,94.19764957350176
1266,94.23026125522
1267,94.26287293693822
1268,94.29548461865649
1269,94.32809630037472
1270,94.36070798209295
1271,94.39331966381118
1272,94.42593134552942
1273,94.45854302724764
1274,94.49115470896588
1275,94.52376639068413
1276,94.55637807240237
1277,94.58898975412058
1278,94.6216014358388
1279,94.65421311755705
1280,94.68682479927529
1281,94.71943648099352
1282,94.75204816271177
1283,94.78465984443001
1284,94.81727152614825
1285,94.84988320786648
1286,94.88249488958469
1287,94.91510657130293
1288,94.94771825302118
1289,94.98032993473942
1290,95.01294161645764
1291,95.04555329817588
1292,95.07816497989413
1293,95.11077666161236
1294,95.1433883433306
1295,95.1760000250488
1296,95.20861170676704
1297,95.24122338848528
1298,95.27383507020352
1299,95.30644675192177
1300,95.33905843364
1301,95.37167011535824
1302,95.40428179707645
1303,95.4368934787947
1304,95.46950516051294
1305,95.50211684223116
1306,95.53472852394941
1307,95.56734020566765
1308,95.59995188738588
1309,95.63256356910412
1310,95.66517525082233
1311,95.69778693254057
1312,95.7303986142588
1313,95.76301029597704
1314,95.79562197769528
1315,95.82823365941351
1316,95.86084534113176
1317,95.89345702285
1318,95.92606870456821
1319,95.95868038628645
1320,95.9912920680047
1321,96.02390374972292
1322,96.05651543144116
1323,96.0891271131594
1324,96.12173879487764
1325,96.15435047659588
1326,96.18696215831409
1327,96.21957384003235
1328,96.25218552175059
1329,96.2847972034688
1330,96.31740888518705
1331,96.35002056690529
1332,96.38263224862352
1333,96.41524393034176
1334,96.44785561206
1335,96.4804672937782
1336,96.51307897549644
1337,96.54569065721468
1338,96.57830233893291
1339,96.61091402065115
1340,96.6435257023694
1341,96.67613738408764
1342,96.70874906580588
1343,96.74136074752408
1344,96.7739724292423
1345,96.80658411096056
1346,96.8391957926788
1347,96.87180747439704
1348,96.90441915611528
1349,96.9370308378335
1350,96.96964251955174
1351,97.00225420126999
1352,97.0348658829882
1353,97.06747756470644
1354,97.10008924642469
1355,97.13270092814292
1356,97.16531260986116
1357,97.1979242915794
1358,97.23053597329763
1359,97.26314765501587
1360,97.29575933673412
1361,97.32837101845232
1362,97.36098270017055
1363,97.39359438188879
1364,97.42620606360704
1365,97.45881774532526
1366,97.4914294270435
1367,97.52404110876174
1368,97.55665279047994
1369,97.5892644721982
1370,97.62187615391643
1371,97.65448783563468
1372,97.68709951735292
1373,97.71971119907116
1374,97.75232288078941
1375,97.78493456250764
1376,97.81754624422588
1377,97.8501579259441
1378,97.88276960766231
1379,97.91538128938058
1380,97.9479929710988
1381,97.98060465281704
1382,98.01321633453527
1383,98.04582801625351
1384,98.07843969797173
1385,98.11105137968995
1386,98.14366306140819
1387,98.17627474312643
1388,98.20888642484468
1389,98.24149810656291
1390,98.27410978828115
1391,98.3067214699994
1392,98.33933315171764
1393,98.37194483343586
1394,98.4045565151541
1395,98.43716819687235
1396,98.46977987859057
1397,98.5023915603088
1398,98.53500324202706
1399,98.56761492374528
1400,98.60022660546349
1401,98.63283828718173
1402,98.66544996889995
1403,98.69806165061821
1404,98.73067333233645
1405,98.76328501405467
1406,98.79589669577291
1407,98.82850837749115
1408,98.86112005920937
1409,98.89373174092762
1410,98.92634342264586
1411,98.9589551043641
1412,98.9915667860823
1413,99.02417846780055
1414,99.05679014951879
1415,99.08940183123705
1416,99.12201351295526
1417,99.1546251946735
1418,99.18723687639172
1419,99.21984855810994
1420,99.25246023982821
1421,99.28507192154645
1422,99.3176836032647
1423,99.3502952849829
1424,99.38290696670114
1425,99.41551864841938
1426,99.44813033013763
1427,99.48074201185585
1428,99.51335369357409
1429,99.54596537529233
1430,99.57857705701055
1431,99.61118873872879
1432,99.64380042044701
1433,99.67641210216526
1434,99.7090237838835
1435,99.74163546560172
1436,99.77424714731994
1437,99.8068588290382
1438,99.83947051075644
1439,99.87208219247465
1440,99.9046938741929
1441,99.93730555591114
1442,99.96991723762936
1443,100.0025289193476
1444,100.03514060106585
1445,100.06775228278408
1446,100.10036396450232
1447,100.13297564622057
1448,100.16558732793881
1449,100.19819900965702
1450,100.23081069137524
1451,100.26342237309349
1452,100.29603405481173
1453,100.32864573652996
1454,100.3612574182482
1455,100.39386909996644
1456,100.42648078168466
1457,100.4590924634029
1458,100.49170414512112
1459,100.52431582683936
1460,100.55692750855759
1461,100.58953919027584
1462,100.62215087199408
1463,100.65476255371232
1464,100.68737423543057
1465,100.7199859171488
1466,100.752597598867
1467,100.78520928058524
1468,100.81782096230349
1469,100.85043264402172
1470,100.88304432573996
1471,100.9156560074582
1472,100.94826768917643
1473,100.98087937089466
1474,101.01349105261288
1475,101.04610273433113
1476,101.07871441604937
1477,101.1113260977676
1478,101.14393777948584
1479,101.17654946120408
1480,101.20916114292231
1481,101.24177282464056
1482,101.2743845063588
1483,101.30699618807701
1484,101.33960786979523
1485,101.37221955151348
1486,101.40483123323172
1487,101.43744291494995
1488,101.47005459666819
1489,101.5026662783864
1490,101.53527796010464
1491,101.56788964182287
1492,101.60050132354112
1493,101.63311300525936
1494,101.6657246869776
1495,101.69833636869585
1496,101.73094805041409
1497,101.76355973213232
1498,101.79617141385056
1499,101.8287830955688
1500,101.861394777287
1501,101.89400645900524
1502,101.92661814072348
1503,101.95922982244171
1504,101.99184150415995
1505,102.0244531858782
1506,102.0570648675964
1507,102.08967654931463
1508,102.12228823103287
1509,102.15489991275112
1510,102.18751159446936
1511,102.22012327618759
1512,102.25273495790584
1513,102.28534663962408
1514,102.3179583213423
1515,102.35057000306055
1516,102.38318168477879
1517,102.415793366497
1518,102.44840504821524
1519,102.48101672993349
1520,102.51362841165172
1521,102.54624009336996
1522,102.5788517750882
1523,102.6114634568064
1524,102.64407513852464
1525,102.67668682024288
1526,102.70929850196111
1527,102.74191018367935
1528,102.77452186539759
1529,102.80713354711582
1530,102.83974522883406
1531,102.8723569105523
1532,102.90496859227055
1533,102.93758027398876
1534,102.970191955707
1535,103.00280363742523
1536,103.03541531914348
1537,103.0680270008617
1538,103.10063868257994
1539,103.13325036429819
1540,103.1658620460164
1541,103.19847372773464
1542,103.23108540945287
1543,103.26369709117112
1544,103.29630877288936
1545,103.32892045460758
1546,103.36153213632582
1547,103.39414381804407
1548,103.42675549976231
1549,103.45936718148052
1550,103.49197886319875
1551,103.52459054491699
1552,103.55720222663523
1553,103.58981390835348
1554,103.6224255900717
1555,103.65503727178994
1556,103.68764895350814
1557,103.7202606352264
1558,103.75287231694463
1559,103.78548399866287
1560,103.81809568038109
1561,103.85070736209934
1562,103.88331904381758
1563,103.91593072553582
1564,103.94854240725405
1565,103.98115408897229
1566,104.01376577069051
1567,104.04637745240878
1568,104.07898913412701
1569,104.11160081584524
1570,104.14421249756347
1571,104.17682417928171
1572,104.20943586099993
1573,104.24204754271817
1574,104.27465922443639
1575,104.30727090615463
1576,104.33988258787286
1577,104.3724942695911
1578,104.40510595130934
1579,104.43771763302756
1580,104.47032931474578
1581,104.50294099646405
1582,104.53555267818228
1583,104.5681643599005
1584,104.60077604161877
1585,104.63338772333701
1586,104.66599940505523
1587,104.6986110867735
1588,104.7312227684917
1589,104.76383445020993
1590,104.79644613192816
1591,104.82905781364641
1592,104.86166949536465
1593,104.89428117708289
1594,104.9268928588011
1595,104.95950454051932
1596,104.99211622223757
1597,105.0247279039558
1598,105.05733958567404
1599,105.08995126739228
1600,105.1225629491105
1601,105.15517463082877
1602,105.18778631254699
1603,105.22039799426523
1604,105.25300967598345
1605,105.2856213577017
1606,105.31823303941994
1607,105.35084472113816
1608,105.38345640285641
1609,105.41606808457465
1610,105.44867976629288
1611,105.48129144801108
1612,105.51390312972931
1613,105.54651481144757
1614,105.5791264931658
1615,105.61173817488405
1616,105.64434985660229
1617,105.67696153832053
1618,105.70957322003876
1619,105.74218490175699
1620,105.77479658347522
1621,105.80740826519346
1622,105.8400199469117
1623,105.87263162862992
1624,105.90524331034815
1625,105.9378549920664
1626,105.97046667378464
1627,106.00307835550285
1628,106.03569003722109
1629,106.06830171893931
1630,106.10091340065756
1631,106.1335250823758
1632,106.16613676409405
1633,106.19874844581229
1634,106.23136012753052
1635,106.26397180924873
1636,106.29658349096698
1637,106.32919517268522
1638,106.36180685440344
1639,106.39441853612169
1640,106.42703021783993
1641,106.45964189955816
1642,106.4922535812764
1643,106.52486526299464
1644,106.55747694471287
1645,106.5900886264311
1646,106.62270030814932
1647,106.65531198986756
1648,106.68792367158579
1649,106.72053535330404
1650,106.75314703502228
1651,106.78575871674049
1652,106.81837039845873
1653,106.85098208017698
1654,106.8835937618952
1655,106.91620544361344
1656,106.94881712533169
1657,106.98142880704992
1658,107.01404048876816
1659,107.04665217048641
1660,107.07926385220463
1661,107.11187553392287
1662,107.14448721564108
1663,107.17709889735931
1664,107.20971057907757
1665,107.2423222607958
1666,107.27493394251402
1667,107.30754562423228
1668,107.34015730595051
1669,107.37276898766875
1670,107.40538066938696
1671,107.4379923511052
1672,107.47060403282343
1673,107.50321571454168
1674,107.53582739625992
1675,107.56843907797816
1676,107.6010507596964
1677,107.63366244141459
1678,107.66627412313284
1679,107.69888580485107
1680,107.73149748656931
1681,107.76410916828756
1682,107.79672085000578
1683,107.82933253172402
1684,107.86194421344227
1685,107.89455589516051
1686,107.92716757687872
1687,107.95977925859695
1688,107.9923909403152
1689,108.02500262203344
1690,108.05761430375168
1691,108.09022598546991
1692,108.12283766718815
1693,108.1554493489064
1694,108.18806103062462
1695,108.22067271234283
1696,108.25328439406107
1697,108.2858960757793
1698,108.31850775749756
1699,108.35111943921578
1700,108.38373112093402
1701,108.41634280265222
1702,108.44895448437047
1703,108.48156616608871
1704,108.51417784780695
1705,108.5467895295252
1706,108.57940121124344
1707,108.61201289296169
1708,108.64462457467992
1709,108.67723625639816
1710,108.70984793811638
1711,108.74245961983463
1712,108.77507130155284
1713,108.80768298327108
1714,108.84029466498932
1715,108.87290634670755
1716,108.90551802842579
1717,108.93812971014401
1718,108.97074139186223
1719,109.00335307358047
1720,109.0359647552987
1721,109.06857643701694
1722,109.1011881187352
1723,109.13379980045343
1724,109.16641148217168
1725,109.1990231638899
1726,109.23163484560814
1727,109.26424652732638
1728,109.29685820904459
1729,109.32946989076284
1730,109.36208157248107
1731,109.39469325419931
1732,109.42730493591756
1733,109.45991661763578
1734,109.492528299354
1735,109.52513998107223
1736,109.5577516627905
1737,109.59036334450873
1738,109.62297502622695
1739,109.65558670794519
1740,109.68819838966343
1741,109.72081007138166
1742,109.7534217530999
1743,109.78603343481814
1744,109.81864511653635
1745,109.85125679825458
1746,109.88386847997283
1747,109.91648016169107
1748,109.94909184340929
1749,109.98170352512754
1750,110.01431520684578
1751,110.04692688856402
1752,110.07953857028222
1753,110.11215025200049
1754,110.14476193371873
1755,110.17737361543695
1756,110.20998529715521
1757,110.24259697887342
1758,110.27520866059166
1759,110.30782034230991
1760,110.34043202402813
1761,110.37304370574637
1762,110.4056553874646
1763,110.43826706918283
1764,110.47087875090106
1765,110.5034904326193
1766,110.53610211433754
1767,110.56871379605577
1768,110.601325477774
1769,110.63393715949222
1770,110.66654884121048
1771,110.69916052292872
1772,110.73177220464693
1773,110.76438388636518
1774,110.79699556808342
1775,110.82960724980164
1776,110.86221893151988
1777,110.89483061323813
1778,110.92744229495636
1779,110.9600539766746
1780,110.99266565839285
1781,111.02527734011109
1782,111.05788902182933
1783,111.09050070354752
1784,111.12311238526577
1785,111.155724066984
1786,111.18833574870224
1787,111.22094743042048
1788,111.25355911213872
1789,111.28617079385694
1790,111.31878247557518
1791,111.35139415729341
1792,111.38400583901165
1793,111.41661752072987
1794,111.44922920244812
1795,111.48184088416636
1796,111.5144525658846
1797,111.54706424760285
1798,111.57967592932108
1799,111.61228761103929
1800,111.64489929275751
1801,111.67751097447577
1802,111.710122656194
1803,111.74273433791224
1804,111.77534601963049
1805,111.8079577013487
1806,111.84056938306692
1807,111.87318106478516
1808,111.90579274650341
1809,111.93840442822165
1810,111.97101610993988
1811,112.00362779165813
1812,112.03623947337636
1813,112.06885115509459
1814,112.10146283681284
1815,112.13407451853108
1816,112.16668620024929
1817,112.19929788196754
1818,112.23190956368576
1819,112.264521245404
1820,112.29713292712223
1821,112.32974460884049
1822,112.3623562905587
1823,112.39496797227692
1824,112.42757965399515
1825,112.4601913357134
1826,112.49280301743164
1827,112.52541469914988
1828,112.55802638086813
1829,112.59063806258636
1830,112.6232497443046
1831,112.65586142602281
1832,112.68847310774107
1833,112.72108478945931
1834,112.75369647117752
1835,112.78630815289577
1836,112.818919834614
1837,112.85153151633223
1838,112.88414319805048
1839,112.91675487976869
1840,112.94936656148693
1841,112.98197824320515
1842,113.0145899249234
1843,113.04720160664164
1844,113.07981328835987
1845,113.11242497007812
1846,113.14503665179636
1847,113.17764833351458
1848,113.2102600152328
1849,113.24287169695107
1850,113.27548337866928
1851,113.30809506038752
1852,113.34070674210577
1853,113.373318423824
1854,113.40593010554224
1855,113.43854178726046
1856,113.47115346897871
1857,113.50376515069692
1858,113.53637683241516
1859,113.56898851413341
1860,113.60160019585163
1861,113.63421187756987
1862,113.6668235592881
1863,113.69943524100634
1864,113.73204692272458
1865,113.7646586044428
1866,113.79727028616104
1867,113.82988196787927
1868,113.86249364959751
1869,113.89510533131576
1870,113.927717013034
1871,113.96032869475222
1872,113.99294037647046
1873,114.02555205818871
1874,114.05816373990692
1875,114.09077542162515
1876,114.1233871033434
1877,114.15599878506164
1878,114.18861046677986
1879,114.2212221484981
1880,114.25383383021635
1881,114.28644551193457
1882,114.3190571936528
1883,114.35166887537106
1884,114.38428055708928
1885,114.4168922388075
1886,114.44950392052576
1887,114.482115602244
1888,114.51472728396222
1889,114.54733896568045
1890,114.57995064739868
1891,114.61256232911691
1892,114.64517401083515
1893,114.6777856925534
1894,114.71039737427162
1895,114.74300905598986
1896,114.7756207377081
1897,114.8082324194263
1898,114.84084410114457
1899,114.87345578286279
1900,114.90606746458106
1901,114.93867914629928
1902,114.97129082801752
1903,115.00390250973578
1904,115.03651419145399
1905,115.06912587317223
1906,115.10173755489045
1907,115.1343492366087
1908,115.16696091832694
1909,115.19957260004514
1910,115.23218428176338
1911,115.26479596348162
1912,115.29740764519985
1913,115.33001932691809
1914,115.36263100863633
1915,115.39524269035455
1916,115.42785437207279
1917,115.46046605379105
1918,115.49307773550927
1919,115.52568941722751
1920,115.55830109894578
1921,115.59091278066398
1922,115.62352446238222
1923,115.65613614410044
1924,115.6887478258187
1925,115.72135950753693
1926,115.75397118925517
1927,115.78658287097342
1928,115.8191945526916
1929,115.85180623440985
1930,115.88441791612809
1931,115.91702959784632
1932,115.94964127956457
1933,115.98225296128281
1934,116.01486464300105
1935,116.04747632471927
1936,116.08008800643749
1937,116.11269968815573
1938,116.14531136987398
1939,116.17792305159222
1940,116.21053473331044
1941,116.24314641502869
1942,116.27575809674693
1943,116.30836977846516
1944,116.34098146018341
1945,116.3735931419016
1946,116.40620482361985
1947,116.43881650533808
1948,116.47142818705632
1949,116.50403986877457
1950,116.5366515504928
1951,116.56926323221106
1952,116.6018749139293
1953,116.6344865956475
1954,116.66709827736574
1955,116.69970995908398
1956,116.73232164080221
1957,116.76493332252045
1958,116.79754500423869
1959,116.83015668595692
1960,116.86276836767513
1961,116.89538004939337
1962,116.92799173111162
1963,116.96060341282984
1964,116.99321509454808
1965,117.02582677626631
1966,117.05843845798456
1967,117.0910501397028
1968,117.12366182142101
1969,117.15627350313926
1970,117.1888851848575
1971,117.22149686657572
1972,117.25410854829396
1973,117.28672023001221
1974,117.31933191173044
1975,117.3519435934487
1976,117.38455527516692
1977,117.41716695688515
1978,117.44977863860338
1979,117.4823903203216
1980,117.51500200203985
1981,117.54761368375809
1982,117.58022536547631
1983,117.61283704719456
1984,117.64544872891277
1985,117.678060410631
1986,117.71067209234926
1987,117.74328377406748
1988,117.77589545578572
1989,117.80850713750395
1990,117.8411188192222
1991,117.87373050094044
1992,117.90634218265865
1993,117.93895386437691
1994,117.97156554609514
1995,118.00417722781336
1996,118.0367889095316
1997,118.06940059124985
1998,118.10201227296808
1999,118.13462395468632
2000,118.16723563640456
2001,118.19984731812279
2002,118.232458999841
2003,118.26507068155924
2004,118.29768236327749
2005,118.33029404499572
2006,118.36290572671396
2007,118.3955174084322
2008,118.42812909015043
2009,118.46074077186864
2010,118.49335245358691
2011,118.52596413530512
2012,118.55857581702335
2013,118.59118749874159
2014,118.62379918045984
2015,118.65641086217808
2016,118.68902254389631
2017,118.72163422561457
2018,118.75424590733276
2019,118.786857589051
2020,118.81946927076923
2021,118.85208095248748
2022,118.88469263420572
2023,118.91730431592396
2024,118.94991599764221
2025,118.98252767936044
2026,119.01513936107868
2027,119.04775104279688
2028,119.08036272451513
2029,119.11297440623336
2030,119.1455860879516
2031,119.17819776966984
2032,119.21080945138807
2033,119.24342113310631
2034,119.27603281482456
2035,119.30864449654275
2036,119.34125617826099
2037,119.37386785997923
2038,119.40647954169748
2039,119.43909122341572
2040,119.47170290513395
2041,119.5043145868522
2042,119.53692626857044
2043,119.56953795028866
2044,119.60214963200687
2045,119.63476131372512
2046,119.66737299544336
2047,119.6999846771616
2048,119.73259635887985
2049,119.76520804059808
2050,119.7978197223163
2051,119.83043140403454
2052,119.86304308575278
2053,119.89565476747102
2054,119.92826644918924
2055,119.96087813090747
2056,119.99348981262571
2057,120.02610149434395
2058,120.05871317606218
2059,120.09132485778042
2060,120.12393653949866
2061,120.15654822121691
2062,120.18915990293512
2063,120.22177158465335
2064,120.25438326637159
2065,120.28699494808984
2066,120.31960662980806
2067,120.3522183115263
2068,120.38482999324455
2069,120.41744167496277
2070,120.45005335668101
2071,120.48266503839923
2072,120.5152767201175
2073,120.5478884018357
2074,120.58050008355394
2075,120.61311176527218
2076,120.64572344699042
2077,120.67833512870865
2078,120.71094681042689
2079,120.74355849214511
2080,120.77617017386335
2081,120.80878185558159
2082,120.84139353729981
2083,120.87400521901806
2084,120.9066169007363
2085,120.9392285824545
2086,120.97184026417277
2087,121.00445194589099
2088,121.03706362760923
2089,121.0696753093275
2090,121.1022869910457
2091,121.13489867276394
2092,121.16751035448219
2093,121.20012203620041
2094,121.23273371791865
2095,121.26534539963689
2096,121.29795708135514
2097,121.33056876307334
2098,121.36318044479158
2099,121.39579212650982
2100,121.42840380822805
2101,121.46101548994629
2102,121.49362717166453
2103,121.52623885338276
2104,121.55885053510099
2105,121.59146221681922
2106,121.62407389853745
2107,121.6566855802557
2108,121.68929726197392
2109,121.72190894369216
2110,121.75452062541041
2111,121.78713230712864
2112,121.81974398884688
2113,121.85235567056513
2114,121.88496735228334
2115,121.91757903400158
2116,121.9501907157198
2117,121.98280239743805
2118,122.01541407915629
2119,122.04802576087452
2120,122.08063744259277
2121,122.11324912431101
2122,122.14586080602925
2123,122.17847248774746
2124,122.21108416946569
2125,122.24369585118393
2126,122.27630753290217
2127,122.3089192146204
2128,122.34153089633864
2129,122.37414257805688
2130,122.40675425977513
2131,122.43936594149336
2132,122.47197762321156
2133,122.5045893049298
2134,122.53720098664805
2135,122.56981266836628
2136,122.60242435008452
2137,122.63503603180277
2138,122.667647713521
2139,122.70025939523924
2140,122.7328710769575
2141,122.76548275867569
2142,122.79809444039392
2143,122.83070612211216
2144,122.86331780383041
2145,122.89592948554865
2146,122.92854116726689
2147,122.96115284898512
2148,122.99376453070333
2149,123.02637621242157
2150,123.0589878941398
2151,123.09159957585804
2152,123.12421125757628
2153,123.15682293929451
2154,123.18943462101277
2155,123.222046302731
2156,123.25465798444921
2157,123.28726966616745
2158,123.31988134788568
2159,123.35249302960392
2160,123.38510471132216
2161,123.41771639304041
2162,123.45032807475864
2163,123.48293975647688
2164,123.51555143819509
2165,123.54816311991335
2166,123.58077480163159
2167,123.6133864833498
2168,123.64599816506805
2169,123.67860984678629
2170,123.71122152850452
2171,123.74383321022276
2172,123.77644489194097
2173,123.8090565736592
2174,123.84166825537744
2175,123.8742799370957
2176,123.90689161881392
2177,123.93950330053215
2178,123.9721149822504
2179,124.00472666396864
2180,124.03733834568686
2181,124.06995002740508
2182,124.10256170912335
2183,124.13517339084156
2184,124.1677850725598
2185,124.20039675427805
2186,124.23300843599628
2187,124.2656201177145
2188,124.29823179943274
2189,124.33084348115099
2190,124.36345516286923
2191,124.39606684458744
2192,124.42867852630569
2193,124.46129020802393
2194,124.49390188974216
2195,124.52651357146038
2196,124.55912525317862
2197,124.59173693489684
2198,124.62434861661508
2199,124.65696029833332
2200,124.68957198005155
2201,124.72218366176979
2202,124.75479534348804
2203,124.78740702520626
2204,124.8200187069245
2205,124.85263038864274
2206,124.88524207036095
2207,124.9178537520792
2208,124.95046543379743
2209,124.98307711551568
2210,125.01568879723392
2211,125.04830047895214
2212,125.08091216067038
2213,125.11352384238863
2214,125.14613552410684
2215,125.17874720582508
2216,125.21135888754331
2217,125.24397056926156
2218,125.2765822509798
2219,125.30919393269804
2220,125.34180561441627
2221,125.3744172961345
2222,125.40702897785273
2223,125.43964065957095
2224,125.47225234128919
2225,125.50486402300743
2226,125.53747570472568
2227,125.57008738644392
2228,125.60269906816215
2229,125.63531074988038
2230,125.66792243159858
2231,125.70053411331683
2232,125.73314579503507
2233,125.76575747675331
2234,125.79836915847156
2235,125.8309808401898
2236,125.86359252190806
2237,125.89620420362623
2238,125.92881588534449
2239,125.96142756706273
2240,125.99403924878095
2241,126.02665093049922
2242,126.05926261221745
2243,126.09187429393567
2244,126.12448597565391
2245,126.15709765737215
2246,126.18970933909037
2247,126.22232102080861
2248,126.25493270252683
2249,126.28754438424507
2250,126.3201560659633
2251,126.35276774768155
2252,126.38537942939979
2253,126.41799111111806
2254,126.45060279283626
2255,126.48321447455449
2256,126.51582615627272
2257,126.54843783799095
2258,126.58104951970921
2259,126.61366120142745
2260,126.6462728831457
2261,126.6788845648639
2262,126.71149624658214
2263,126.74410792830038
2264,126.7767196100186
2265,126.80933129173685
2266,126.84194297345509
2267,126.87455465517333
2268,126.90716633689155
2269,126.93977801860979
2270,126.97238970032801
2271,127.00500138204626
2272,127.0376130637645
2273,127.07022474548272
2274,127.10283642720094
2275,127.1354481089192
2276,127.16805979063743
2277,127.2006714723557
2278,127.2332831540739
2279,127.26589483579214
2280,127.29850651751038
2281,127.3311181992286
2282,127.36372988094685
2283,127.39634156266509
2284,127.42895324438332
2285,127.46156492610154
2286,127.49417660781978
2287,127.52678828953802
2288,127.55939997125624
2289,127.59201165297449
2290,127.62462333469273
2291,127.65723501641097
2292,127.6898466981292
2293,127.72245837984742
2294,127.75507006156565
2295,127.7876817432839
2296,127.82029342500212
2297,127.85290510672036
2298,127.8855167884386
2299,127.91812847015684
2300,127.95074015187508
2301,127.98335183359329
2302,128.01596351531154
2303,128.04857519702978
2304,128.08118687874799
2305,128.11379856046622
2306,128.14641024218452
2307,128.17902192390272
2308,128.21163360562093
2309,128.2442452873392
2310,128.2768569690574
2311,128.30946865077567
2312,128.34208033249388
2313,128.37469201421214
2314,128.40730369593038
2315,128.43991537764862
2316,128.47252705936683
2317,128.50513874108506
2318,128.5377504228033
2319,128.57036210452154
2320,128.60297378623974
2321,128.63558546795798
2322,128.66819714967622
2323,128.70080883139448
2324,128.73342051311272
2325,128.76603219483093
2326,128.7986438765492
2327,128.8312555582674
2328,128.8638672399857
2329,128.89647892170387
2330,128.92909060342214
2331,128.96170228514035
2332,128.99431396685858
2333,129.02692564857682
2334,129.05953733029506
2335,129.0921490120133
2336,129.12476069373153
2337,129.15737237544977
2338,129.189984057168
2339,129.22259573888624
2340,129.25520742060448
2341,129.28781910232271
2342,129.32043078404095
2343,129.3530424657592
2344,129.3856541474774
2345,129.41826582919566
2346,129.45087751091387
2347,129.48348919263213
2348,129.51610087435034
2349,129.54871255606858
2350,129.58132423778682
2351,129.61393591950508
2352,129.6465476012233
2353,129.67915928294153
2354,129.71177096465976
2355,129.744382646378
2356,129.77699432809624
2357,129.8096060098145
2358,129.8422176915327
2359,129.87482937325098
2360,129.90744105496918
2361,129.94005273668742
2362,129.97266441840566
2363,130.0052761001239
2364,130.03788778184213
2365,130.07049946356034
2366,130.10311114527858
2367,130.1357228269968
2368,130.16833450871508
2369,130.20094619043329
2370,130.23355787215152
2371,130.26616955386976
2372,130.298781235588
2373,130.33139291730623
2374,130.3640045990245
2375,130.3966162807427
2376,130.42922796246094
2377,130.46183964417918
2378,130.49445132589742
2379,130.52706300761565
2380,130.55967468933386
2381,130.59228637105213
2382,130.6248980527703
2383,130.6575097344886
2384,130.6901214162068
2385,130.72273309792507
2386,130.75534477964328
2387,130.78795646136152
2388,130.82056814307975
2389,130.853179824798
2390,130.88579150651623
2391,130.91840318823444
2392,130.9510148699527
2393,130.98362655167094
2394,131.01623823338915
2395,131.0488499151074
2396,131.08146159682565
2397,131.11407327854386
2398,131.14668496026212
2399,131.1792966419803
2400,131.2119083236986
2401,131.2445200054168
2402,131.2771316871351
2403,131.30974336885328
2404,131.3423550505715
2405,131.37496673228978
2406,131.40757841400801
2407,131.44019009572622
2408,131.47280177744446
2409,131.50541345916272
2410,131.53802514088093
2411,131.57063682259917
2412,131.6032485043174
2413,131.63586018603564
2414,131.66847186775385
2415,131.70108354947212
2416,131.73369523119032
2417,131.7663069129086
2418,131.7989185946268
2419,131.83153027634506
2420,131.86414195806327
2421,131.89675363978156
2422,131.92936532149972
2423,131.96197700321798
2424,131.99458868493622
2425,132.02720036665443
2426,132.05981204837272
2427,132.09242373009093
2428,132.12503541180916
2429,132.1576470935274
2430,132.19025877524564
2431,132.22287045696385
2432,132.2554821386821
2433,132.28809382040032
2434,132.32070550211859
2435,132.3533171838368
2436,132.38592886555506
2437,132.41854054727327
2438,132.4511522289915
2439,132.48376391070974
2440,132.51637559242798
2441,132.54898727414619
2442,132.58159895586442
2443,132.61421063758272
2444,132.64682231930092
2445,132.67943400101916
2446,132.7120456827374
2447,132.74465736445563
2448,132.77726904617384
2449,132.8098807278921
2450,132.84249240961032
2451,132.87510409132858
2452,132.9077157730468
2453,132.94032745476505
2454,132.97293913648326
2455,133.00555081820153
2456,133.03816249991974
2457,133.07077418163794
2458,133.1033858633562
2459,133.13599754507445
2460,133.16860922679268
2461,133.20122090851092
2462,133.23383259022916
2463,133.2664442719474
2464,133.29905595366563
2465,133.33166763538387
2466,133.3642793171021
2467,133.3968909988203
2468,133.42950268053858
2469,133.46211436225678
2470,133.49472604397505
2471,133.52733772569326
2472,133.55994940741152
2473,133.5925610891297
2474,133.625172770848
2475,133.6577844525662
2476,133.69039613428444
2477,133.7230078160027
2478,133.75561949772091
2479,133.78823117943915
2480,133.8208428611574
2481,133.85345454287562
2482,133.88606622459386
2483,133.9186779063121
2484,133.9512895880303
2485,133.98390126974854
2486,134.01651295146678
2487,134.04912463318504
2488,134.08173631490325
2489,134.11434799662152
2490,134.1469596783397
2491,134.179571360058
2492,134.2121830417762
2493,134.24479472349444
2494,134.2774064052127
2495,134.3100180869309
2496,134.34262976864915
2497,134.37524145036738
2498,134.40785313208562
2499,134.44046481380386
2500,134.4730764955221
2501,134.5056881772403
2502,134.53829985895857
2503,134.57091154067678
2504,134.60352322239504
2505,134.63613490411325
2506,134.6687465858315
2507,134.70135826754972
2508,134.733969949268
2509,134.7665816309862
2510,134.79919331270443
2511,134.8318049944227
2512,134.8644166761409
2513,134.89702835785914
2514,134.92964003957738
2515,134.96225172129562
2516,134.99486340301385
2517,135.0274750847321
2518,135.0600867664503
2519,135.09269844816856
2520,135.12531012988677
2521,135.15792181160506
2522,135.19053349332324
2523,135.2231451750415
2524,135.25575685675972
2525,135.28836853847798
2526,135.32098022019622
2527,135.35359190191446
2528,135.38620358363266
2529,135.4188152653509
2530,135.45142694706914
2531,135.48403862878737
2532,135.5166503105056
2533,135.54926199222385
2534,135.58187367394206
2535,135.6144853556603
2536,135.64709703737856
2537,135.67970871909677
2538,135.71232040081506
2539,135.74493208253324
2540,135.7775437642515
2541,135.81015544596968
2542,135.84276712768798
2543,135.87537880940621
2544,135.90799049112445
2545,135.94060217284266
2546,135.9732138545609
2547,136.00582553627913
2548,136.03843721799737
2549,136.0710488997156
2550,136.10366058143384
2551,136.13627226315208
2552,136.16888394487032
2553,136.20149562658855
2554,136.23410730830676
2555,136.26671899002505
2556,136.29933067174323
2557,136.3319423534615
2558,136.3645540351797
2559,136.39716571689794
2560,136.42977739861618
2561,136.46238908033445
2562,136.49500076205263
2563,136.5276124437709
2564,136.56022412548913
2565,136.59283580720736
2566,136.6254474889256
2567,136.65805917064384
2568,136.69067085236208
2569,136.72328253408028
2570,136.75589421579858
2571,136.78850589751676
2572,136.82111757923502
2573,136.85372926095323
2574,136.8863409426715
2575,136.9189526243897
2576,136.95156430610797
2577,136.9841759878262
2578,137.01678766954444
2579,137.04939935126265
2580,137.0820110329809
2581,137.11462271469912
2582,137.14723439641736
2583,137.1798460781356
2584,137.21245775985383
2585,137.24506944157207
2586,137.27768112329028
2587,137.31029280500854
2588,137.34290448672678
2589,137.37551616844502
2590,137.40812785016323
2591,137.4407395318815
2592,137.4733512135997
2593,137.50596289531796
2594,137.53857457703614
2595,137.57118625875444
2596,137.60379794047265
2597,137.6364096221909
2598,137.66902130390912
2599,137.70163298562736
2600,137.7342446673456
2601,137.76685634906383
2602,137.79946803078207
2603,137.8320797125003
2604,137.86469139421854
2605,137.89730307593678
2606,137.92991475765498
2607,137.96252643937322
2608,137.9951381210915
2609,138.0277498028097
2610,138.06036148452796
2611,138.09297316624614
2612,138.12558484796443
2613,138.15819652968264
2614,138.1908082114009
2615,138.22341989311911
2616,138.25603157483735
2617,138.2886432565556
2618,138.32125493827382
2619,138.35386661999206
2620,138.3864783017103
2621,138.4190899834285
2622,138.45170166514677
